"sep=	"
Shimmer_85E7_Timestamp_Shimmer_CAL	Shimmer_85E7_EMG_CH1_24BIT_CAL	
Ticks	mV	
492184.02099609375	-1.7304623203033989	
492203.55224609375	-1.7326500097095978	
492223.08349609375	-1.7293324147859115	
492242.61474609375	-1.72736109026604	
492262.14599609375	-1.7222164140800333	
492281.67724609375	-1.7179612379822617	
492301.20849609375	-1.7186343731841691	
492320.73974609375	-1.7179612379822617	
492340.27099609375	-1.7140185889425186	
492359.80224609375	-1.7110135210768607	
492379.33349609375	-1.7097393723018217	
492398.86474609375	-1.7075276423526973	
492418.39599609375	-1.7055082367469752	
492437.92724609375	-1.7027676148534951	
492457.45849609375	-1.7030561013685983	
492476.98974609375	-1.703392668969552	
492496.52099609375	-1.6984883982127983	
492516.05224609375	-1.6988490063566772	
492535.58349609375	-1.696997884551432	
492555.11474609375	-1.6979595062684425	
492574.64599609375	-1.7013251822779794	
492594.17724609375	-1.698560519841574	
492613.70849609375	-1.6962045466348983	
492633.23974609375	-1.6976950602962646	
492652.77099609375	-1.696997884551432	
492672.30224609375	-1.6925984651961088	
492691.83349609375	-1.6929109922541372	
492711.36474609375	-1.6963728304353751	
492730.89599609375	-1.6899780460172549	
492750.42724609375	-1.680409909933	
492769.95849609375	-1.6811070856778327	
492789.48974609375	-1.6791357611579611	
492809.02099609375	-1.68086668024858	
492828.55224609375	-1.6823331533670212	
492848.08349609375	-1.6835351805132843	
492867.61474609375	-1.6866604510935685	
492887.14599609375	-1.6890645053860949	
492906.67724609375	-1.6864921672930917	
492926.20849609375	-1.683775585942537	
492945.73974609375	-1.6863479240355401	
492965.27099609375	-1.6904107757899096	
492984.80224609375	-1.6852901401468285	
493004.33349609375	-1.6875739917247286	
493023.86474609375	-1.6842563968010422	
493043.39599609375	-1.684785288745398	
493062.92724609375	-1.6822129506523948	
493082.45849609375	-1.6757460446054988	
493101.98974609375	-1.673390071398823	
493121.52099609375	-1.6586051374997859	
493141.05224609375	-1.649565893359887	
493160.58349609375	-1.6750729094035914	
493180.11474609375	-1.685145896889277	
493199.64599609375	-1.5485475319879292	
493219.17724609375	-1.7546230659432887	
493238.70849609375	-1.7244041034862325	
493258.23974609375	-1.5727563587136697	
493277.77099609375	-1.5873008871834542	
493297.30224609375	-1.5420085043122576	
493316.83349609375	-1.524723353948993	
493336.36474609375	-1.583454400315412	
493355.89599609375	-1.5416478961683786	
493375.42724609375	-1.5616015467963473	
493394.95849609375	-1.5719149397112855	
493414.48974609375	-1.5991528748456092	
493434.02099609375	-1.626414850522858	
493453.55224609375	-1.5888154413877458	
493473.08349609375	-1.577348102412395	
493492.61474609375	-1.6163418630371726	
493512.14599609375	-1.5801608459346508	
493531.67724609375	-1.6075670648694513	
493551.20849609375	-1.6117741598813724	
493570.73974609375	-1.59742195575499	
493590.27099609375	-1.591580103824151	
493609.80224609375	-1.6222798771397127	
493629.33349609375	-1.6190584443877274	
493648.86474609375	-1.6053072538344766	
493668.39599609375	-1.6015809696810608	
493687.92724609375	-1.5937197121444995	
493707.45849609375	-1.5865796708956963	
493726.98974609375	-1.580809940593633	
493746.52099609375	-1.5625872090562831	
493766.05224609375	-1.5540287757748894	
493785.58349609375	-1.5429941665721933	
493805.11474609375	-1.5382822201588418	
493824.64599609375	-1.5259734621811067	
493844.17724609375	-1.5251560837216478	
493863.70849609375	-1.537753328214486	
493883.23974609375	-1.5423450719132112	
493902.77099609375	-1.5557116137796578	
493922.30224609375	-1.5670106689545316	
493941.83349609375	-1.5988643883305058	
493961.36474609375	-1.58371884628759	
493980.89599609375	-1.7067823855220141	
494000.42724609375	-1.7680136483526605	
494019.95849609375	-1.4709446594251783	
494039.48974609375	-1.5284736786453341	
494059.02099609375	-1.6582926104417575	
494078.55224609375	-1.4520247521429959	
494098.08349609375	-1.5960756853511753	
494117.61474609375	-1.5941524419171542	
494137.14599609375	-1.6080959568138071	
494156.67724609375	-1.6187699578726242	
494176.20849609375	-1.6136974033153935	
494195.73974609375	-1.6072064567255724	
494215.27099609375	-1.6004510641635734	
494234.80224609375	-1.5865796708956963	
494254.33349609375	-1.5832380354290845	
494273.86474609375	-1.5595821411906252	
494293.39599609375	-1.5747757643193918	
494312.92724609375	-1.566049047237521	
494332.45849609375	-1.498086432387801	
494351.98974609375	-1.6459117308352469	
494371.52099609375	-1.6633892055419135	
494391.05224609375	-1.412622302288489	
494410.58349609375	-1.5782376025006297	
494430.11474609375	-1.5940081986596026	
494449.64599609375	-1.6057880646929819	
494469.17724609375	-1.6630526379409598	
494488.70849609375	-1.6618506107946966	
494508.23974609375	-1.3870672051589337	
494527.77099609375	-1.7295728202151641	
494547.30224609375	-1.7883038665815831	
494566.83349609375	-1.6154042818630874	
494586.36474609375	-1.5710013990801255	
494605.89599609375	-1.9078334460059936	
494625.42724609375	-1.8324182628494416	
494644.95849609375	-1.7551519578876447	
494664.48974609375	-1.859439833097438	
494684.02099609375	-1.7355348748606294	
494703.55224609375	-1.9873355214598403	
494723.08349609375	-1.8205422346443616	
494742.61474609375	-1.7303421175887725	
494762.14599609375	-1.6012684426230324	
494781.67724609375	-1.6798329369027938	
494801.20849609375	-1.5540047352319641	
494820.73974609375	-1.5389313148178239	
494840.27099609375	-1.4734448758894056	
494859.80224609375	-1.4114443156851508	
494879.33349609375	-1.3689887168791355	
494898.86474609375	-1.3374234840182644	
494918.39599609375	-1.4462069407550822	
494937.92724609375	-1.4228876141175764	
494957.45849609375	-1.2926599930914235	
494976.98974609375	-1.2940062634952383	
494996.52099609375	-1.1839726985263068	
495016.05224609375	-1.2999923586836288	
495035.58349609375	-1.2108740660596768	
495055.11474609375	-1.161566912519961	
495074.64599609375	-1.1611341827473063	
495094.17724609375	-1.0433836034993653	
495113.70849609375	-1.1648123858148718	
495133.23974609375	-1.1576002229372926	
495152.77099609375	-0.8488956112339828	
495172.30224609375	-1.1714235351193192	
495191.83349609375	-1.0686502141138174	
495211.36474609375	-0.9973459637974855	
495230.89599609375	-1.0877143646535514	
495250.42724609375	-1.1496428032290305	
495269.95849609375	-0.8560356524827861	
495289.48974609375	-1.0985566495128452	
495309.02099609375	-1.0776654177107912	
495328.55224609375	-0.9173630774851336	
495348.08349609375	-1.033430818728306	
495367.61474609375	-0.9636651631591913	
495387.14599609375	-1.0216269121520016	
495406.67724609375	-1.0397294409747253	
495426.20849609375	-1.1932523480954584	
495445.73974609375	-0.9910233010081412	
495465.27099609375	-1.118870908284693	
495484.80224609375	-1.177770238451589	
495504.33349609375	-1.0218673175812545	
495523.86474609375	-1.0613418890645372	
495543.39599609375	-1.0989412981996494	
495562.92724609375	-1.1568549661066094	
495582.45849609375	-0.8236530411624561	
495601.98974609375	-1.120505665203611	
495621.52099609375	-1.0899260946026756	
495641.05224609375	-1.007226626939769	
495660.58349609375	-1.014534951989049	
495680.11474609375	-1.0803098774325701	
495699.64599609375	-1.1688271564833908	
495719.17724609375	-1.0017934642386592	
495738.70849609375	-1.1563741552481042	
495758.23974609375	-1.052206482752937	
495777.77099609375	-1.0214105472656743	
495797.30224609375	-1.186448874447609	
495816.83349609375	-1.1556048578744957	
495836.36474609375	-1.033695264700484	
495855.89599609375	-1.0901905405748535	
495875.42724609375	-1.0703330521185859	
495894.95849609375	-1.175798913931717	
495914.48974609375	-1.2162110665890853	
495934.02099609375	-1.077184606852286	
495953.55224609375	-1.2054409033585671	
495973.08349609375	-1.03924863011622	
495992.61474609375	-1.1493062356280768	
496012.14599609375	-1.144137518899145	
496031.67724609375	-1.1512775601479484	
496051.20849609375	-1.113774313184537	
496070.73974609375	-1.0601639024611993	
496090.27099609375	-1.0735064037847206	
496109.80224609375	-1.110576920975477	
496129.33349609375	-1.0154004115343584	
496148.86474609375	-1.1162504891058393	
496168.39599609375	-1.075549849933368	
496187.92724609375	-1.1191593947997962	
496207.45849609375	-1.1326942204667196	
496226.98974609375	-1.0247762232752113	
496246.52099609375	-1.18745857725047	
496266.05224609375	-1.0544182127020614	
496285.58349609375	-1.1204575841177604	
496305.11474609375	-1.1372138425366691	
496324.64599609375	-1.1373580857942207	
496344.17724609375	-1.1308911797473247	
496363.70849609375	-1.134280896299787	
496383.23974609375	-1.1095191370867654	
496402.77099609375	-1.0712706332926711	
496422.30224609375	-0.9823206244691958	
496441.83349609375	-0.9567895678825659	
496461.36474609375	-0.9904944090637854	
496480.89599609375	-1.1145195700152202	
496500.42724609375	-1.1849343202433174	
496519.95849609375	-1.207893038736944	
496539.48974609375	-1.0714148765502227	
496559.02099609375	-1.2184227965382095	
496578.55224609375	-0.9262099972816306	
496598.08349609375	-1.4904896208234177	
496617.61474609375	-1.3418229033735876	
496637.14599609375	-1.3538191342932941	
496656.67724609375	-1.2876355196200435	
496676.20849609375	-1.4791905656485438	
496695.73974609375	-1.1875306988792458	
496715.27099609375	-1.0141983843880953	
496734.80224609375	-1.1372138425366691	
496754.33349609375	-1.229673770627233	
496773.86474609375	-1.3769942176732481	
496793.39599609375	-1.435701223496742	
496812.92724609375	-1.346246363271836	
496832.45849609375	-1.4161562620985026	
496851.98974609375	-1.4490677653631885	
496871.52099609375	-1.3626179730039405	
496891.05224609375	-1.3484580932209602	
496910.58349609375	-1.2983335612217857	
496930.11474609375	-1.299727912711451	
496949.64599609375	-1.3733400551486081	
496969.17724609375	-1.3869470024443074	
496988.70849609375	-1.352617107147031	
497008.23974609375	-1.3890625702217305	
497027.77099609375	-1.3159312386430786	
497047.30224609375	-1.4809936063679385	
497066.83349609375	-1.3455732280699286	
497086.36474609375	-1.357906026590589	
497105.89599609375	-1.33201436186008	
497125.42724609375	-1.313599305979328	
497144.95849609375	-1.2177737018792274	
497164.48974609375	-1.2857363167289475	
497184.02099609375	-1.2175573369929	
497203.55224609375	-1.3086469541367238	
497223.08349609375	-1.2062342412751008	
497242.61474609375	-1.3038628860945964	
497262.14599609375	-1.3525690260611805	
497281.67724609375	-1.3935581517487547	
497301.20849609375	-1.1971709565922766	
497320.73974609375	-1.3321345645747062	
497340.27099609375	-1.2488821644245185	
497359.80224609375	-1.2245290944412264	
497379.33349609375	-1.35480479655323	
497398.86474609375	-1.3261484693863157	
497418.39599609375	-1.323263604235284	
497437.92724609375	-1.3622333243171363	
497457.45849609375	-1.3579541076764394	
497476.98974609375	-1.3743497579514692	
497496.52099609375	-1.3752873391255545	
497516.05224609375	-1.3511265934856647	
497535.58349609375	-1.3487706202789886	
497555.11474609375	-1.2958573853004836	
497574.64599609375	-1.2674655041057472	
497594.17724609375	-1.3003289262845825	
497613.70849609375	-1.2226298915501306	
497633.23974609375	-1.2279188109936887	
497652.77099609375	-1.295256371727352	
497672.30224609375	-1.2754469643569348	
497691.83349609375	-1.2258272837591908	
497711.36474609375	-1.3443952414665907	
497730.89599609375	-1.2460694209022627	
497750.42724609375	-1.2810484108585212	
497769.95849609375	-1.211715485062061	
497789.48974609375	-1.2852074247845917	
497809.02099609375	-1.3126376842623175	
497828.55224609375	-1.2403958527719006	
497848.08349609375	-1.1981566188522124	
497867.61474609375	-1.246646393932469	
497887.14599609375	-1.2255868783299382	
497906.67724609375	-1.2639555848386588	
497926.20849609375	-1.1832755227814742	
497945.73974609375	-1.3499245663394015	
497965.27099609375	-1.1657018859031065	
497984.80224609375	-1.3169169009030144	
498004.33349609375	-1.2507332862297638	
498023.86474609375	-1.3605264457694426	
498043.39599609375	-1.2324624736065635	
498062.92724609375	-1.3151138601836196	
498082.45849609375	-1.4240175196350637	
498101.98974609375	-1.163826723554936	
498121.52099609375	-1.5180400830157696	
498141.05224609375	-1.1586820473689294	
498160.58349609375	-1.431422006856045	
498180.11474609375	-1.4925330669720651	
498199.64599609375	-1.4353165748099377	
498219.17724609375	-1.445461683924399	
498238.70849609375	-1.4501495897948253	
498258.23974609375	-1.2847025733831612	
498277.77099609375	-1.4656797805245456	
498297.30224609375	-1.4625545099442614	
498316.83349609375	-1.3660076895564028	
498336.36474609375	-1.486787377212927	
498355.89599609375	-1.2995355883680488	
498375.42724609375	-1.4724351730865446	
498394.95849609375	-1.4157716134116984	
498414.48974609375	-1.4440432918918085	
498434.02099609375	-1.413535842919649	
498453.55224609375	-1.4792626872773196	
498473.08349609375	-1.4534671847185117	
498492.61474609375	-1.4643335101207309	
498512.14599609375	-1.493061958916421	
498531.67724609375	-1.4744305381493417	
498551.20849609375	-1.372234190174046	
498570.73974609375	-1.536503219982372	
498590.27099609375	-1.437528304759062	
498609.80224609375	-1.4769067140706438	
498629.33349609375	-1.448106143646178	
498648.86474609375	-1.3764172446430418	
498668.39599609375	-1.501572311111964	
498687.92724609375	-1.4726274974299467	
498707.45849609375	-1.4470002786716158	
498726.98974609375	-1.4421681295436377	
498746.52099609375	-1.4384658859331472	
498766.05224609375	-1.4956102564664988	
498785.58349609375	-1.468829091647755	
498805.11474609375	-1.5064285007828675	
498824.64599609375	-1.4452453190380716	
498844.17724609375	-1.4960670267820788	
498863.70849609375	-1.493975499547581	
498883.23974609375	-1.4256282360110564	
498902.77099609375	-1.4410622645690756	
498922.30224609375	-1.5065487034974938	
498941.83349609375	-1.4714975919124593	
498961.36474609375	-1.4497889816509464	
498980.89599609375	-1.479214606191469	
499000.42724609375	-1.4961872294967051	
499019.95849609375	-1.4787097547900385	
499039.48974609375	-1.4570011445285254	
499059.02099609375	-1.5015482705690388	
499078.55224609375	-1.4921964993711114	
499098.08349609375	-1.4627227937447382	
499117.61474609375	-1.4758970112677827	
499137.14599609375	-1.4904415397375672	
499156.67724609375	-1.4644537128353572	
499176.20849609375	-1.4841188769482228	
499195.73974609375	-1.4167572756716342	
499215.27099609375	-1.4342347503783008	
499234.80224609375	-1.370046500767847	
499254.33349609375	-1.4720505243997404	
499273.86474609375	-1.4330086826891124	
499293.39599609375	-1.4090402613926245	
499312.92724609375	-1.4316383717423724	
499332.45849609375	-1.3323268889181084	
499351.98974609375	-1.444812589265417	
499371.52099609375	-1.379254028708223	
499391.05224609375	-1.3738208660071134	
499410.58349609375	-1.4162524242702037	
499430.11474609375	-1.4150503971239405	
499449.64599609375	-1.4014674903711666	
499469.17724609375	-1.3679790140762744	
499488.70849609375	-1.3741333930651418	
499508.23974609375	-1.4419036835714598	
499527.77099609375	-1.3765855284435187	
499547.30224609375	-1.3935581517487547	
499566.83349609375	-1.3622573648600615	
499586.36474609375	-1.3913223812567053	
499605.89599609375	-1.3711764062853344	
499625.42724609375	-1.3029253049205112	
499644.95849609375	-1.4150744376668658	
499664.48974609375	-1.351703566515871	
499684.02099609375	-1.3537950937503689	
499703.55224609375	-1.3449241334109465	
499723.08349609375	-1.3552856074117352	
499742.61474609375	-1.3530257963767605	
499762.14599609375	-1.4216855869713132	
499781.67724609375	-1.3190805497662883	
499801.20849609375	-1.3424719980325697	
499820.73974609375	-1.3483619310492592	
499840.27099609375	-1.3274947397901304	
499859.80224609375	-1.412357856316311	
499879.33349609375	-1.3069400755890301	
499898.86474609375	-1.371416811714587	
499918.39599609375	-1.3292256588807494	
499937.92724609375	-1.3587474455929731	
499957.45849609375	-1.305377440298888	
499976.98974609375	-1.3001125613982552	
499996.52099609375	-1.396851706129516	
500016.05224609375	-1.3652143516398692	
500035.58349609375	-1.289150073824335	
500055.11474609375	-1.349972647425252	
500074.64599609375	-1.3749988526104513	
500094.17724609375	-1.2732592749507359	
500113.70849609375	-1.3843265832654537	
500133.23974609375	-1.2215240265755685	
500152.77099609375	-1.468540605132652	
500172.30224609375	-1.373051568633505	
500191.83349609375	-1.4059630718981908	
500211.36474609375	-1.2449875964706258	
500230.89599609375	-1.2425835421780995	
500250.42724609375	-1.4349559666660587	
500269.95849609375	-1.3044158185818775	
500289.48974609375	-1.3498524447106257	
500309.02099609375	-1.3950246248671958	
500328.55224609375	-1.3842063805508273	
500348.08349609375	-1.1937812400398145	
500367.61474609375	-1.311219292229727	
500387.14599609375	-1.4627227937447382	
500406.67724609375	-1.2577290842210156	
500426.20849609375	-1.173971832669397	
500445.73974609375	-1.3070843188465817	
500465.27099609375	-1.2976123449340278	
500484.80224609375	-1.260589908829122	
500504.33349609375	-1.228135175880016	
500523.86474609375	-1.3646614191525879	
500543.39599609375	-1.101994447151158	
500562.92724609375	-1.4779164168735048	
500582.45849609375	-1.111033691291057	
500601.98974609375	-1.3398756193966412	
500621.52099609375	-1.3058582511573933	
500641.05224609375	-1.0861757699063346	
500660.58349609375	-1.5135204609458202	
500680.11474609375	-1.2536181513807954	
500699.64599609375	-1.4283688579045366	
500719.17724609375	-1.3409093627424276	
500738.70849609375	-1.2602052601423177	
500758.23974609375	-1.3632670676629226	
500777.77099609375	-1.3687242709069576	
500797.30224609375	-1.2421027313195943	
500816.83349609375	-1.3132867789212996	
500836.36474609375	-1.3737247038354123	
500855.89599609375	-1.322806833919704	
500875.42724609375	-1.3415103763155591	
500894.95849609375	-1.2768413158466	
500914.48974609375	-1.365743243584225	
500934.02099609375	-1.3495399176525973	
500953.55224609375	-1.3003289262845825	
500973.08349609375	-1.2795578971971548	
500992.61474609375	-1.25542119210019	
501012.14599609375	-1.3218211716597683	
501031.67724609375	-1.327086050560401	
501051.20849609375	-1.4259407630690848	
501070.73974609375	-1.1209383949762657	
501090.27099609375	-1.3655990003266734	
501109.80224609375	-1.2853757085850686	
501129.33349609375	-1.0784347150843996	
501148.86474609375	-1.47611337615411	
501168.39599609375	-1.2339289467250045	
501187.92724609375	-1.232702879035816	
501207.45849609375	-1.2910733172583562	
501226.98974609375	-1.3990874766215655	
501246.52099609375	-1.2301786220286635	
501266.05224609375	-1.3507179042559352	
501285.58349609375	-1.12680428745003	
501305.11474609375	-1.412622302288489	
501324.64599609375	-1.2811686135731475	
501344.17724609375	-1.329562226481703	
501363.70849609375	-1.5279928677868289	
501383.23974609375	-1.3132627383783744	
501402.77099609375	-1.264340233525463	
501422.30224609375	-1.3053293592130375	
501441.83349609375	-1.4278880470460313	
501461.36474609375	-1.2914579659451604	
501480.89599609375	-1.3044879402106533	
501500.42724609375	-1.2785481943942938	
501519.95849609375	-1.2845342895826843	
501539.48974609375	-1.3064833052734501	
501559.02099609375	-1.2989345747949173	
501578.55224609375	-1.255685638072368	
501598.08349609375	-1.2750863562130559	
501617.61474609375	-1.2130136743800253	
501637.14599609375	-1.2343857170405845	
501656.67724609375	-1.2197209858561737	
501676.20849609375	-1.2541951244110017	
501695.73974609375	-1.255325029928489	
501715.27099609375	-1.1687309943116897	
501734.80224609375	-1.1751738598156602	
501754.33349609375	-1.2344578386693603	
501773.86474609375	-1.2312844870032256	
501793.39599609375	-1.2161149044173842	
501812.92724609375	-1.1146157321869212	
501832.45849609375	-1.2661432742448577	
501851.98974609375	-1.2511419754594932	
501871.52099609375	-1.2193122966264442	
501891.05224609375	-1.1054803258753212	
501910.58349609375	-1.2883567359078014	
501930.11474609375	-1.2560702867591724	
501949.64599609375	-1.1920022398633447	
501969.17724609375	-1.1726496028085076	
501988.70849609375	-1.2509736916590164	
502008.23974609375	-1.2320778249197593	
502027.77099609375	-1.1823619821503142	
502047.30224609375	-1.0847814184166693	
502066.83349609375	-1.1374061668800712	
502086.36474609375	-1.0933879327839136	
502105.89599609375	-0.9871046925113233	
502125.42724609375	-1.0883634593125335	
502144.95849609375	-1.122885678953212	
502164.48974609375	-1.1080767045112496	
502184.02099609375	-1.121058597690892	
502203.55224609375	-1.1287515714269762	
502223.08349609375	-1.1176208000525794	
502242.61474609375	-1.125530138674991	
502262.14599609375	-1.13045844997467	
502281.67724609375	-1.1081007450541749	
502301.20849609375	-1.1056005285899475	
502320.73974609375	-1.2053928222727166	
502340.27099609375	-1.1001192848029875	
502359.80224609375	-1.1634180343252065	
502379.33349609375	-1.15233534403666	
502398.86474609375	-1.1715437378339455	
502418.39599609375	-1.2177977424221527	
502437.92724609375	-1.2327509601216666	
502457.45849609375	-1.1524795872942115	
502476.98974609375	-1.2529209756359627	
502496.52099609375	-1.1726255622655823	
502516.05224609375	-1.2061861601892503	
502535.58349609375	-1.1651489534158255	
502555.11474609375	-1.1675530077083518	
502574.64599609375	-1.2136387284960821	
502594.17724609375	-1.2235434321812906	
502613.70849609375	-1.1886846449396584	
502633.23974609375	-1.2218605941765222	
502652.77099609375	-1.2035417004674713	
502672.30224609375	-1.241068987973808	
502691.83349609375	-1.2490504482249953	
502711.36474609375	-1.208542133395926	
502730.89599609375	-1.2241925268402727	
502750.42724609375	-1.219937350742501	
502769.95849609375	-1.2647248822122672	
502789.48974609375	-1.2306594328871687	
502809.02099609375	-1.231140243745674	
502828.55224609375	-1.2684752069086083	
502848.08349609375	-1.2516227863179985	
502867.61474609375	-1.2478724616216574	
502887.14599609375	-1.2239040403251695	
502906.67724609375	-1.2648691254698188	
502926.20849609375	-1.2613111251168798	
502945.73974609375	-1.2457568938442343	
502965.27099609375	-1.2823466001764854	
502984.80224609375	-1.2462377047027395	
503004.33349609375	-1.2608303142583746	
503023.86474609375	-1.2184949181669853	
503043.39599609375	-1.247559934563629	
503062.92724609375	-1.258594543766325	
503082.45849609375	-1.2384004877091035	
503101.98974609375	-1.2632343685509009	
503121.52099609375	-1.261335165659805	
503141.05224609375	-1.2127251878649221	
503160.58349609375	-1.2897030063116162	
503180.11474609375	-1.2038061464396492	
503199.64599609375	-1.262513152263143	
503219.17724609375	-1.2118116472337621	
503238.70849609375	-1.209239309140759	
503258.23974609375	-1.1627448991232991	
503277.77099609375	-1.2234713105525148	
503297.30224609375	-1.1899587937146974	
503316.83349609375	-1.2058736331312219	
503336.36474609375	-1.1976998485366324	
503355.89599609375	-1.1813282388045279	
503375.42724609375	-1.2269091081908277	
503394.95849609375	-1.1870498880207405	
503414.48974609375	-1.2166197558188148	
503434.02099609375	-1.2020752273490303	
503453.55224609375	-1.1983249026526892	
503473.08349609375	-1.1850064418720931	
503492.61474609375	-1.1578406283665452	
503512.14599609375	-1.2483532724801627	
503531.67724609375	-1.2021954300636566	
503551.20849609375	-1.2012097678037208	
503570.73974609375	-1.172048589235376	
503590.27099609375	-1.1548355605008873	
503609.80224609375	-1.2219807968911485	
503629.33349609375	-1.120145057059732	
503648.86474609375	-1.306651589073927	
503668.39599609375	-1.1620477233784663	
503687.92724609375	-1.171856264891974	
503707.45849609375	-1.1083651910263528	
503726.98974609375	-1.1027877850676917	
503746.52099609375	-1.090695391976284	
503766.05224609375	-1.111851069750516	
503785.58349609375	-1.1219961788649773	
503805.11474609375	-1.0915368109786683	
503824.64599609375	-1.1778904411662152	
503844.17724609375	-1.1783712520247205	
503863.70849609375	-1.1400746671447755	
503883.23974609375	-1.0639142271575404	
503902.77099609375	-1.043455725128141	
503922.30224609375	-1.0614861323220888	
503941.83349609375	-1.031675859094762	
503961.36474609375	-1.0079959243133774	
503980.89599609375	-1.108389231569278	
504000.42724609375	-0.9802050566917726	
504019.95849609375	-1.1010328254341475	
504039.48974609375	-1.0610053214635835	
504059.02099609375	-1.1012251497775496	
504078.55224609375	-1.104085974385656	
504098.08349609375	-1.108846001884858	
504117.61474609375	-1.1497630059436568	
504137.14599609375	-1.1203133408602088	
504156.67724609375	-1.0243915745884071	
504176.20849609375	-1.182530265950791	
504195.73974609375	-1.0236703583006492	
504215.27099609375	-1.0741074173578522	
504234.80224609375	-1.2156581341018042	
504254.33349609375	-1.1649085479865728	
504273.86474609375	-1.086680621307765	
504293.39599609375	-1.15050826277434	
504312.92724609375	-1.1623121693506444	
504332.45849609375	-1.1828187524658942	
504351.98974609375	-1.1773615492218592	
504371.52099609375	-1.1675530077083518	
504391.05224609375	-1.1717841432631981	
504410.58349609375	-1.1182939352544867	
504430.11474609375	-1.137935058824427	
504449.64599609375	-1.188732726025509	
504469.17724609375	-1.136564747877687	
504488.70849609375	-1.213542566324381	
504508.23974609375	-1.1432720593538355	
504527.77099609375	-1.191833956062868	
504547.30224609375	-1.1281986389396952	
504566.83349609375	-1.2196969453132485	
504586.36474609375	-1.1426229646948534	
504605.89599609375	-1.1472387489365041	
504625.42724609375	-1.125722463018393	
504644.95849609375	-1.2041186734976776	
504664.48974609375	-1.1496428032290305	
504684.02099609375	-1.1703897917735329	
504703.55224609375	-1.1524074656654357	
504723.08349609375	-1.1649806696153486	
504742.61474609375	-1.1637065208403097	
504762.14599609375	-1.1624083315223455	
504781.67724609375	-1.1863767528188331	
504801.20849609375	-1.1649085479865728	
504820.73974609375	-1.1528401954380905	
504840.27099609375	-1.1908723343458574	
504859.80224609375	-1.1843092661272605	
504879.33349609375	-1.1139906780708644	
504898.86474609375	-1.1925311318077005	
504918.39599609375	-1.1774577113935603	
504937.92724609375	-1.1515660466630515	
504957.45849609375	-1.1384158696829323	
504976.98974609375	-1.1661346156757613	
504996.52099609375	-1.1565905201344315	
505016.05224609375	-1.1067063935645096	
505035.58349609375	-1.1477916814237852	
505055.11474609375	-1.1296891526010615	
505074.64599609375	-1.191665672262391	
505094.17724609375	-1.1051437582743675	
505113.70849609375	-1.1076439747385949	
505133.23974609375	-1.196305497046967	
505152.77099609375	-1.1843333066701858	
505172.30224609375	-1.143680748583565	
505191.83349609375	-1.186184428475431	
505211.36474609375	-1.1776019546511118	
505230.89599609375	-1.1477436003379347	
505250.42724609375	-1.1452674244166323	
505269.95849609375	-1.0698522412600806	
505289.48974609375	-1.2131819581805021	
505309.02099609375	-1.1360358559333312	
505328.55224609375	-1.1706301972027855	
505348.08349609375	-1.101994447151158	
505367.61474609375	-1.1934446724388608	
505387.14599609375	-1.1214913274635467	
505406.67724609375	-1.1326942204667196	
505426.20849609375	-1.1673126022790992	
505445.73974609375	-1.1628651018379255	
505465.27099609375	-1.1772173059643076	
505484.80224609375	-1.1128367320104517	
505504.33349609375	-1.117139989194074	
505523.86474609375	-1.1625044936940465	
505543.39599609375	-1.1492821950851515	
505562.92724609375	-1.1366128289635375	
505582.45849609375	-1.1088219613419328	
505601.98974609375	-1.1631295478101034	
505621.52099609375	-1.15690304719246	
505641.05224609375	-1.151710289920603	
505660.58349609375	-1.1238473006702225	
505680.11474609375	-1.145339546045408	
505699.64599609375	-1.1367089911352386	
505719.17724609375	-1.1431999377250597	
505738.70849609375	-1.1235588141551194	
505758.23974609375	-1.120145057059732	
505777.77099609375	-1.071342754921447	
505797.30224609375	-1.1609418584039042	
505816.83349609375	-1.1062736637918549	
505836.36474609375	-1.143584586411864	
505855.89599609375	-1.2268850676479024	
505875.42724609375	-1.034512643159943	
505894.95849609375	-1.139209207599466	
505914.48974609375	-1.1514458439484252	
505934.02099609375	-1.1112740967203096	
505953.55224609375	-1.007587235083648	
505973.08349609375	-1.1588984122552568	
505992.61474609375	-1.081127255892029	
506012.14599609375	-1.1533210062965957	
506031.67724609375	-1.0529998206694708	
506051.20849609375	-1.1427191268665544	
506070.73974609375	-1.0879307295398788	
506090.27099609375	-1.1385360723975586	
506109.80224609375	-1.0737468092139733	
506129.33349609375	-1.1655095615597044	
506148.86474609375	-1.1529123170668663	
506168.39599609375	-1.1319249230931112	
506187.92724609375	-1.198589348624867	
506207.45849609375	-1.1303382472600436	
506226.98974609375	-1.15324888466782	
506246.52099609375	-1.1112500561773844	
506266.05224609375	-1.1598600339722673	
506285.58349609375	-1.1830591578951468	
506305.11474609375	-1.1484648166256926	
506324.64599609375	-1.14959472214318	
506344.17724609375	-1.1661586562186865	
506363.70849609375	-1.141132451033487	
506383.23974609375	-1.1747651705859308	
506402.77099609375	-1.1144234078435191	
506422.30224609375	-1.175967197732194	
506441.83349609375	-1.0921859056376504	
506461.36474609375	-1.1760874004468203	
506480.89599609375	-1.0895174053729462	
506500.42724609375	-1.1737314272401445	
506519.95849609375	-1.2099124443426663	
506539.48974609375	-1.2052245384722398	
506559.02099609375	-1.0258580477068482	
506578.55224609375	-1.1555567767886452	
506598.08349609375	-1.1413728564627397	
506617.61474609375	-1.1763999275048487	
506637.14599609375	-1.0324691970112956	
506656.67724609375	-1.1150244214166507	
506676.20849609375	-1.0970420953085536	
506695.73974609375	-1.228495784023895	
506715.27099609375	-1.1431999377250597	
506734.80224609375	-1.1539220198697273	
506754.33349609375	-1.1450751000732302	
506773.86474609375	-1.1731784947528634	
506793.39599609375	-1.089493364830021	
506812.92724609375	-1.188011509737751	
506832.45849609375	-1.0780741069405206	
506851.98974609375	-1.087762445739402	
506871.52099609375	-1.172144751407077	
506891.05224609375	-1.1337520043554312	
506910.58349609375	-1.1056726502187233	
506930.11474609375	-1.1324057339516165	
506949.64599609375	-1.1348097882441428	
506969.17724609375	-1.1061294205343033	
506988.70849609375	-1.0804060396042712	
507008.23974609375	-1.092233986723501	
507027.77099609375	-1.1104086371750002	
507047.30224609375	-1.137478288508847	
507066.83349609375	-1.112860772553377	
507086.36474609375	-1.0004712343777697	
507105.89599609375	-1.0097268434039963	
507125.42724609375	-1.1234626519834183	
507144.95849609375	-1.0760306607918733	
507164.48974609375	-1.1031483932115707	
507184.02099609375	-1.0536248747855277	
507203.55224609375	-1.0552355911615203	
507223.08349609375	-1.1109615696622812	
507242.61474609375	-1.0801656341750185	
507262.14599609375	-1.0289833182871324	
507281.67724609375	-1.1215634490923225	
507301.20849609375	-1.0793963368014101	
507320.73974609375	-1.1153369484746791	
507340.27099609375	-1.0380946840558074	
507359.80224609375	-1.1410122483188607	
507379.33349609375	-1.0243915745884071	
507398.86474609375	-1.0706936602624648	
507418.39599609375	-1.1510852358045462	
507437.92724609375	-1.0742516606154038	
507457.45849609375	-1.147959965224262	
507476.98974609375	-1.1164668539921667	
507496.52099609375	-1.0971382574802546	
507516.05224609375	-1.1394976941145691	
507535.58349609375	-1.0845169724444914	
507555.11474609375	-1.0915848920645188	
507574.64599609375	-1.052663253068517	
507594.17724609375	-1.1033166770120475	
507613.70849609375	-1.0691310249723227	
507633.23974609375	-1.0761749040494248	
507652.77099609375	-1.0538652802147803	
507672.30224609375	-1.1137021915557612	
507691.83349609375	-1.1052399204460686	
507711.36474609375	-1.1137262320986865	
507730.89599609375	-1.0958400681622904	
507750.42724609375	-1.049201414887279	
507769.95849609375	-1.1408920456042344	
507789.48974609375	-1.0449462387895074	
507809.02099609375	-1.0805983639476733	
507828.55224609375	-1.1622881288077191	
507848.08349609375	-1.044537549559778	
507867.61474609375	-1.0479032255693148	
507887.14599609375	-1.1058409340192001	
507906.67724609375	-1.0594667267163667	
507926.20849609375	-1.0352098189047756	
507945.73974609375	-1.0918012569508462	
507965.27099609375	-1.113678151012836	
507984.80224609375	-1.0454751307338632	
508004.33349609375	-1.0626160378395761	
508023.86474609375	-1.0242713718737808	
508043.39599609375	-1.0679770789119098	
508062.92724609375	-1.0807906882910754	
508082.45849609375	-1.058408942827655	
508101.98974609375	-1.043527846756917	
508121.52099609375	-1.0629045243546793	
508141.05224609375	-1.0926667164961557	
508160.58349609375	-1.0316277780089114	
508180.11474609375	-1.077376931195688	
508199.64599609375	-1.0229491420128913	
508219.17724609375	-1.0686261735708922	
508238.70849609375	-0.9949659500478845	
508258.23974609375	-1.0380466029699569	
508277.77099609375	-0.9862392329660137	
508297.30224609375	-1.0403304545478569	
508316.83349609375	-1.0503313204047664	
508336.36474609375	-1.034512643159943	
508355.89599609375	-1.009510478517669	
508375.42724609375	-0.9893164224604475	
508394.95849609375	-1.0309786833499293	
508414.48974609375	-1.0041013563594845	
508434.02099609375	-1.042253697981878	
508453.55224609375	-1.0105442218634553	
508473.08349609375	-0.9468127425685814	
508492.61474609375	-1.0265071423658303	
508512.14599609375	-0.9587128113165869	
508531.67724609375	-0.9916964362100485	
508551.20849609375	-1.0211461012934964	
508570.73974609375	-0.8880816962021625	
508590.27099609375	-1.0157369791353121	
508609.80224609375	-1.04061894106296	
508629.33349609375	-1.0279976560271966	
508648.86474609375	-0.923974226789581	
508668.39599609375	-1.0299208994612177	
508687.92724609375	-1.0455953334484895	
508707.45849609375	-1.0157129385923869	
508726.98974609375	-0.9972738421687097	
508746.52099609375	-0.9957833285073434	
508766.05224609375	-1.041243995179017	
508785.58349609375	-0.9655403255073618	
508805.11474609375	-0.9950380716766603	
508824.64599609375	-1.0071064242251426	
508844.17724609375	-0.9643623389040239	
508863.70849609375	-0.9880903547712591	
508883.23974609375	-0.97905111063136	
508902.77099609375	-1.0305699941201998	
508922.30224609375	-0.9879701520566327	
508941.83349609375	-0.9796280836615663	
508961.36474609375	-0.9634007171870134	
508980.89599609375	-1.0659095922203372	
509000.42724609375	-0.98087819189368	
509019.95849609375	-1.005784194364253	
509039.48974609375	-0.9736900695590262	
509059.02099609375	-0.9849891247339	
509078.55224609375	-0.9565732029962385	
509098.08349609375	-1.0465329146225748	
509117.61474609375	-0.9462357695383751	
509137.14599609375	-1.032060507781566	
509156.67724609375	-0.9667183121106997	
509176.20849609375	-0.9946053419040055	
509195.73974609375	-0.9318835654119927	
509215.27099609375	-0.9832822461862063	
509234.80224609375	-1.015809100764088	
509254.33349609375	-1.0239828853586777	
509273.86474609375	-0.9719110693825567	
509293.39599609375	-1.0294641291456377	
509312.92724609375	-1.00823632974263	
509332.45849609375	-1.0062890457656837	
509351.98974609375	-0.8957987104811721	
509371.52099609375	-1.0985326089699199	
509391.05224609375	-1.1019463660653075	
509410.58349609375	-1.1271648955939089	
509430.11474609375	-0.9375811740852802	
509449.64599609375	-0.8627429639589347	
509469.17724609375	-0.7964391465710576	
509488.70849609375	-0.9050543195073986	
509508.23974609375	-1.07619894459235	
509527.77099609375	-1.039056305772818	
509547.30224609375	-0.9352732819644549	
509566.83349609375	-0.9490244725177057	
509586.36474609375	-0.9878499493420064	
509605.89599609375	-1.0238867231869766	
509625.42724609375	-0.9030108733587512	
509644.95849609375	-1.0120106949818963	
509664.48974609375	-0.9940043283308738	
509684.02099609375	-1.0414844006082695	
509703.55224609375	-0.9957112068785676	
509723.08349609375	-1.0210018580359448	
509742.61474609375	-1.0504515231193927	
509762.14599609375	-1.0426864277545327	
509781.67724609375	-0.9886673278014654	
509801.20849609375	-1.0876903241106262	
509820.73974609375	-1.0592744023729646	
509840.27099609375	-1.0415084411511948	
509859.80224609375	-1.023189547442144	
509879.33349609375	-0.9517410538682605	
509898.86474609375	-1.1172601919087004	
509918.39599609375	-0.9953265581917634	
509937.92724609375	-1.0239828853586777	
509957.45849609375	-1.0579762130550003	
509976.98974609375	-1.0355463865057293	
509996.52099609375	-1.0369166974524693	
510016.05224609375	-0.8840188444477929	
510035.58349609375	-1.077929863682969	
510055.11474609375	-1.0750690390748627	
510074.64599609375	-0.8338221908198425	
510094.17724609375	-0.8293266092928182	
510113.70849609375	-1.015809100764088	
510133.23974609375	-0.9432787827585677	
510152.77099609375	-0.9356819711941844	
510172.30224609375	-0.7095325838962298	
510191.83349609375	-0.7784568204629605	
510211.36474609375	-0.2920925965419527	
510230.89599609375	0.1781644636191285	
510250.42724609375	-0.7731438604764772	
510269.95849609375	-0.30550721949424975	
510289.48974609375	-0.5771893950926537	
510309.02099609375	-0.39652471500929776	
510328.55224609375	-0.7913906325567522	
510348.08349609375	-0.903539765303107	
510367.61474609375	-0.8460107460829511	
510387.14599609375	-0.5479080138096826	
510406.67724609375	-0.22679848195693675	
510426.20849609375	-0.02425690781159097	
510445.73974609375	-0.062096722375955864	
510465.27099609375	0.1540037179792386	
510484.80224609375	-0.023728015867235167	
510504.33349609375	0.10003269911202183	
510523.86474609375	0.26588840475341535	
510543.39599609375	0.09298882003491958	
510562.92724609375	0.21881702170574924	
510582.45849609375	0.26410940457694587	
510601.98974609375	0.3055553005801003	
510621.52099609375	0.3352213305498756	
510641.05224609375	0.26913387804832595	
510660.58349609375	0.34216904745527676	
510680.11474609375	0.4030877832278947	
510699.64599609375	0.45323635576999455	
510719.17724609375	0.5156936862898294	
510738.70849609375	0.41289632474140225	
510758.23974609375	0.5427633376236762	
510777.77099609375	0.5926474641935982	
510797.30224609375	0.7033782049073622	
510816.83349609375	0.7113356246156245	
510836.36474609375	0.8202392840670686	
510855.89599609375	0.8757729382244275	
510875.42724609375	0.9562606759382101	
510894.95849609375	0.9083719144310849	
510914.48974609375	0.9974661665121118	
510934.02099609375	1.004966815904794	
510953.55224609375	1.031411413122584	
510973.08349609375	0.8638488289334968	
510992.61474609375	0.9918887605534507	
511012.14599609375	0.8564683822554409	
511031.67724609375	1.1039657716710296	
511051.20849609375	0.6515708349034193	
511070.73974609375	0.9194786452625567	
511090.27099609375	0.7649219947960371	
511109.80224609375	0.6269533189479493	
511129.33349609375	0.7857411049693154	
511148.86474609375	0.9417642285542761	
511168.39599609375	1.0642988758443446	
511187.92724609375	0.506630401607005	
511207.45849609375	0.7523007097602736	
511226.98974609375	0.8044686879080957	
511246.52099609375	0.6305594003867389	
511266.05224609375	0.369551225847152	
511285.58349609375	0.5596878798430618	
511305.11474609375	0.6620284710759089	
511324.64599609375	0.27348521631779865	
511344.17724609375	0.35284304851409376	
511363.70849609375	0.4421055843955975	
511383.23974609375	0.7430210601911219	
511402.77099609375	0.31464262580584995	
511422.30224609375	0.008630554910169631	
511441.83349609375	0.37849430781535004	
511461.36474609375	0.6028887354797604	
511480.89599609375	0.04834553182270509	
511500.42724609375	0.31668607195449733	
511519.95849609375	0.1294823641954697	
511539.48974609375	0.6517391187038961	
511559.02099609375	1.033599102528783	
511578.55224609375	0.39712572858242934	
511598.08349609375	0.5758671652317642	
511617.61474609375	1.3839178940357242	
511637.14599609375	0.24470868643625812	
511656.67724609375	0.7174659630615667	
511676.20849609375	0.7083545972928919	
511695.73974609375	1.0065534917378616	
511715.27099609375	0.5869258149773854	
511734.80224609375	0.8208643381831254	
511754.33349609375	0.3314229247676839	
511773.86474609375	0.5803146656729379	
511793.39599609375	0.5639430559408334	
511812.92724609375	0.9724640018698377	
511832.45849609375	1.0312431293221072	
511851.98974609375	0.871806248641759	
511871.52099609375	1.0447779549890306	
511891.05224609375	0.8652191398802368	
511910.58349609375	0.8635122613325431	
511930.11474609375	0.5715158269622914	
511949.64599609375	0.6088027090393753	
511969.17724609375	0.3563770083241075	
511988.70849609375	0.4410478005068859	
512008.23974609375	0.22018733265248927	
512027.77099609375	0.17465454435204003	
512047.30224609375	-0.08705080593237947	
512066.83349609375	0.09017607651266374	
512086.36474609375	0.24518949729476341	
512105.89599609375	0.12998721559690027	
512125.42724609375	0.16547105695458933	
512144.95849609375	0.12440980963823911	
512164.48974609375	-0.04168630143240708	
512184.02099609375	0.21134041285599225	
512203.55224609375	-0.23571752338220955	
512223.08349609375	-0.20030580365329628	
512242.61474609375	-0.2179275216175145	
512262.14599609375	-0.06875595276625389	
512281.67724609375	-0.41467532491787173	
512301.20849609375	-0.16297084049036192	
512320.73974609375	-0.301059719053076	
512340.27099609375	-0.25848391753243416	
512359.80224609375	-0.31764769367150786	
512379.33349609375	-0.3174072882422552	
512398.86474609375	-0.3708494151651162	
512418.39599609375	-0.26675386429872483	
512437.92724609375	-0.2125664805451807	
512457.45849609375	-0.2781250411023745	
512476.98974609375	-0.1278476072765518	
512496.52099609375	0.1777076933035485	
512516.05224609375	-0.34815514264366737	
512535.58349609375	-0.3409910608519388	
512555.11474609375	-0.1841024777216686	
512574.64599609375	-0.3333942492875555	
512594.17724609375	-0.411958743567317	
512613.70849609375	-0.06245733051983482	
512633.23974609375	-0.4615063025362852	
512652.77099609375	-0.3485397913304716	
512672.30224609375	-0.1668173273584041	
512691.83349609375	-0.444701963031526	
512711.36474609375	-0.23444337460717057	
512730.89599609375	-0.2176630756453366	
512750.42724609375	-0.5068708070362576	
512769.95849609375	-0.5143714564289399	
512789.48974609375	-0.4739112226857213	
512809.02099609375	-0.8057668772260599	
512828.55224609375	-0.14371436560722578	
512848.08349609375	0.011587541689977053	
512867.61474609375	-0.44729834166745447	
512887.14599609375	-0.16645671921452512	
512906.67724609375	-0.10767759176225564	
512926.20849609375	0.0983979421931039	
512945.73974609375	-0.07995884576942672	
512965.27099609375	0.006394784418120116	
512984.80224609375	0.005865892473764317	
513004.33349609375	0.09601792844350279	
513023.86474609375	-0.21737458913023341	
513043.39599609375	0.03798405782191648	
513062.92724609375	-0.19489668149511197	
513082.45849609375	0.01704474493401189	
513101.98974609375	-0.4090979189592106	
513121.52099609375	-0.30257427325736763	
513141.05224609375	-0.3399573175061525	
513160.58349609375	-0.45102462582087033	
513180.11474609375	-0.3988566476730483	
513199.64599609375	-0.4477310714401092	
513219.17724609375	-0.4612418565641073	
513238.70849609375	-0.4692954384440706	
513258.23974609375	-0.36753182024142983	
513277.77099609375	-0.3332740465729292	
513297.30224609375	-0.23182295542831685	
513316.83349609375	-0.17866931502055905	
513336.36474609375	-0.23929956427807383	
513355.89599609375	-0.3241145997184038	
513375.42724609375	-0.2457183892391192	
513394.95849609375	-0.32440308623350694	
513414.48974609375	-0.2594214987065195	
513434.02099609375	-0.4180650414703339	
513453.55224609375	-0.47682012837967813	
513473.08349609375	-0.4723726279385044	
513492.61474609375	-0.4422498276531491	
513512.14599609375	-0.6181063991514523	
513531.67724609375	-0.6007972082452625	
513551.20849609375	-0.5733669487675368	
513570.73974609375	-0.5566828119774038	
513590.27099609375	-0.5641594208271608	
513609.80224609375	-0.46251600533914633	
513629.33349609375	-0.5148763078303704	
513648.86474609375	-0.38662001132408913	
513668.39599609375	-0.4003231207914894	
513687.92724609375	-0.5636786099686555	
513707.45849609375	-0.4293640966452078	
513726.98974609375	-0.47362273617061806	
513746.52099609375	-0.4511688690784219	
513766.05224609375	-0.4359271648638048	
513785.58349609375	-0.46030427539002206	
513805.11474609375	-0.6207748994161566	
513824.64599609375	-0.49427356254341953	
513844.17724609375	-0.6214239940751387	
513863.70849609375	-0.4642950055156158	
513883.23974609375	-0.6122405066776879	
513902.77099609375	-0.48881635929938466	
513922.30224609375	-0.5687511645258861	
513941.83349609375	-0.515116713259623	
513961.36474609375	-0.8307690418683341	
513980.89599609375	-0.6568116732611267	
514000.42724609375	-0.5808195170743684	
514019.95849609375	-0.476531641864575	
514039.48974609375	-0.6134425338239512	
514059.02099609375	-0.5625487044511681	
514078.55224609375	-0.4987931846133691	
514098.08349609375	-0.4242194204592014	
514117.61474609375	-0.3045455977772392	
514137.14599609375	-0.5655778128597514	
514156.67724609375	-0.6503207266713055	
514176.20849609375	-0.5898106801284171	
514195.73974609375	-0.7345828296243544	
514215.27099609375	-0.7044119482531486	
514234.80224609375	-0.552956527823988	
514254.33349609375	-0.6667404174892605	
514273.86474609375	-0.5912050316180824	
514293.39599609375	-0.6568837948899025	
514312.92724609375	-0.5405756482174772	
514332.45849609375	-0.5278822415529381	
514351.98974609375	-0.5121837670227409	
514371.52099609375	-0.5911809910751571	
514391.05224609375	-0.6856122436855925	
514410.58349609375	-0.6803233242420345	
514430.11474609375	-0.6939062309948084	
514449.64599609375	-0.66349494419435	
514469.17724609375	-0.6663076877166058	
514488.70849609375	-0.6668606202038868	
514508.23974609375	-0.6897472170687378	
514527.77099609375	-0.6723659045337722	
514547.30224609375	-0.7018636507030707	
514566.83349609375	-0.6595522951546068	
514586.36474609375	-0.6357761982015211	
514605.89599609375	-0.6213759129892882	
514625.42724609375	-0.6012780191037678	
514644.95849609375	-0.5843775174273075	
514664.48974609375	-0.6422911853342674	
514684.02099609375	-0.6637834307094531	
514703.55224609375	-0.6991711098954412	
514723.08349609375	-0.7351598026545607	
514742.61474609375	-0.7623496567030339	
514762.14599609375	-0.77612488779921	
514781.67724609375	-0.7809089558413373	
514801.20849609375	-0.7735525497062067	
514820.73974609375	-0.7614361160718739	
514840.27099609375	-0.7529257638763306	
514859.80224609375	-0.742660452047243	
514879.33349609375	-0.7189324361800078	
514898.86474609375	-0.6748420804550744	
514918.39599609375	-0.631761427533002	
514937.92724609375	-0.5960612212889855	
514957.45849609375	-0.5862045986896275	
514976.98974609375	-0.5805310305592652	
514996.52099609375	-0.5687752050688114	
515016.05224609375	-0.5883201664670507	
515035.58349609375	-0.6164235611466838	
515055.11474609375	-0.6433730097659043	
515074.64599609375	-0.6748420804550744	
515094.17724609375	-0.69130985235888	
515113.70849609375	-0.7019598128747717	
515133.23974609375	-0.7073208539471055	
515152.77099609375	-0.7139079627086278	
515172.30224609375	-0.719220922695111	
515191.83349609375	-0.7243896394240427	
515211.36474609375	-0.7288611804081416	
515230.89599609375	-0.7314094779582196	
515250.42724609375	-0.7301112886402554	
515269.95849609375	-0.7326595861903333	
515289.48974609375	-0.7247021664820711	
515309.02099609375	-0.7148215033397878	
515328.55224609375	-0.7076814620909845	
515348.08349609375	-0.7015992047308928	
515367.61474609375	-0.7126097733906634	
515387.14599609375	-0.7227308419621995	
515406.67724609375	-0.7299670453827038	
515426.20849609375	-0.7415305465297556	
515445.73974609375	-0.7457376415416768	
515465.27099609375	-0.745208749597321	
515484.80224609375	-0.7445596549383388	
515504.33349609375	-0.7472281552030431	
515523.86474609375	-0.7564116426004938	
515543.39599609375	-0.7540316288508927	
515562.92724609375	-0.7509303988135336	
515582.45849609375	-0.7564597236863443	
515601.98974609375	-0.7571568994311769	
515621.52099609375	-0.7583348860345148	
515641.05224609375	-0.7563635615146432	
515660.58349609375	-0.7621573323596318	
515680.11474609375	-0.7663644273715529	
515699.64599609375	-0.7702830358683709	
515719.17724609375	-0.7748507390241709	
515738.70849609375	-0.7783125772054089	
515758.23974609375	-0.7860536320273438	
515777.77099609375	-0.7865584834287743	
515797.30224609375	-0.7861738347419701	
515816.83349609375	-0.7847314021664543	
515836.36474609375	-0.7878326322038133	
515855.89599609375	-0.7867267672292512	
515875.42724609375	-0.787351821345308	
515894.95849609375	-0.7802839017252805	
515914.48974609375	-0.7758844823699572	
515934.02099609375	-0.7711004143278298	
515953.55224609375	-0.7724707252745698	
515973.08349609375	-0.7715091035575593	
515992.61474609375	-0.7710763737849046	
516012.14599609375	-0.7673981707173392	
516031.67724609375	-0.7751151849963488	
516051.20849609375	-0.7738169956783846	
516070.73974609375	-0.7604264132690127	
516090.27099609375	-0.7702349547825204	
516109.80224609375	-0.773576590249132	
516129.33349609375	-0.7758844823699572	
516148.86474609375	-0.7782404555766331	
516168.39599609375	-0.7755479147690035	
516187.92724609375	-0.7752353877109751	
516207.45849609375	-0.7725668874462709	
516226.98974609375	-0.7710042521561288	
516246.52099609375	-0.7646335082809339	
516266.05224609375	-0.7640805757936528	
516285.58349609375	-0.771388900842933	
516305.11474609375	-0.77932228000827	
516324.64599609375	-0.7731679010194025	
516344.17724609375	-0.7702589953254456	
516363.70849609375	-0.7651624002252897	
516383.23974609375	-0.7686963600353035	
516402.77099609375	-0.7727111307038225	
516422.30224609375	-0.7726630496179719	
516441.83349609375	-0.7735525497062067	
516461.36474609375	-0.7755719553119288	
516480.89599609375	-0.774033360564712	
516500.42724609375	-0.7721822387594667	
516519.95849609375	-0.7731198199335519	
516539.48974609375	-0.7767980230011173	
516559.02099609375	-0.7747305363095446	
516578.55224609375	-0.770114752067894	
516598.08349609375	-0.7679511032046202	
516617.61474609375	-0.7650902785965139	
516637.14599609375	-0.7579742778906359	
516656.67724609375	-0.7569886156307001	
516676.20849609375	-0.7548249667674264	
516695.73974609375	-0.7548970883962022	
516715.27099609375	-0.7527574800758537	
516734.80224609375	-0.745304911769022	
516754.33349609375	-0.7442711684232356	
516773.86474609375	-0.7516275745583663	
516793.39599609375	-0.7500889798111494	
516812.92724609375	-0.7523728313890494	
516832.45849609375	-0.7530219260480316	
516851.98974609375	-0.7512910069574126	
516871.52099609375	-0.7504255474121031	
516891.05224609375	-0.7465309794582105	
516910.58349609375	-0.7459059253421536	
516930.11474609375	-0.7478051282332494	
516949.64599609375	-0.7519881827022452	
516969.17724609375	-0.7485263445210073	
516988.70849609375	-0.7419392357594851	
517008.23974609375	-0.7443432900520114	
517027.77099609375	-0.7379485056338914	
517047.30224609375	-0.7641767379653539	
517066.83349609375	-0.7612197511855465	
517086.36474609375	-0.7550894127396043	
517105.89599609375	-0.7566039669438959	
517125.42724609375	-0.766196143571076	
517144.95849609375	-0.7697060628381646	
517164.48974609375	-0.774225684908114	
517184.02099609375	-0.7651624002252897	
517203.55224609375	-0.7721581982165414	
517223.08349609375	-0.786342118542447	
517242.61474609375	-0.7897318350949091	
517262.14599609375	-0.7797309692379994	
517281.67724609375	-0.7782404555766331	
517301.20849609375	-0.77840873937711	
517320.73974609375	-0.7874239429740838	
517340.27099609375	-0.8004058361537262	
517359.80224609375	-0.8153590538532401	
517379.33349609375	-0.8192776623500581	
517398.86474609375	-0.829759339065473	
517418.39599609375	-0.8374523128015573	
517437.92724609375	-0.8448808405654638	
517457.45849609375	-0.8432460836465459	
517476.98974609375	-0.8461309487975774	
517496.52099609375	-0.8361781640265183	
517516.05224609375	-0.8351203801378068	
517535.58349609375	-0.8435105296187237	
517555.11474609375	-0.842164259214909	
517574.64599609375	-0.8480061111457481	
517594.17724609375	-0.8492081382920112	
517613.70849609375	-0.8498572329509934	
517633.23974609375	-0.8475974219160186	
517652.77099609375	-0.847357016486766	
517672.30224609375	-0.8518766385567155	
517691.83349609375	-0.8528142197308007	
517711.36474609375	-0.8582473824319103	
517730.89599609375	-0.8613486124692693	
517750.42724609375	-0.8630554910169631	
517769.95849609375	-0.8613005313834188	
517789.48974609375	-0.8630074099311126	
517809.02099609375	-0.8661807615972473	
517828.55224609375	-0.8606995178102872	
517848.08349609375	-0.850650570867527	
517867.61474609375	-0.849640868064666	
517887.14599609375	-0.8540402874199892	
517906.67724609375	-0.8590166798055188	
517926.20849609375	-0.8609158826966146	
517945.73974609375	-0.8584156662323872	
517965.27099609375	-0.8512275438977334	
517984.80224609375	-0.8512035033548081	
518004.33349609375	-0.8496889491505165	
518023.86474609375	-0.8542326117633914	
518043.39599609375	-0.860867801610764	
518062.92724609375	-0.8669981400567063	
518082.45849609375	-0.8669981400567063	
518101.98974609375	-0.8652912615090126	
518121.52099609375	-0.86687793734208	
518141.05224609375	-0.8681761266600442	
518160.58349609375	-0.8732967623031254	
518180.11474609375	-0.8743305056489117	
518199.64599609375	-0.8754123300805485	
518219.17724609375	-0.8701474511799159	
518238.70849609375	-0.8745949516210896	
518258.23974609375	-0.8741622218484348	
518277.77099609375	-0.8718543297276096	
518297.30224609375	-0.8713735188691043	
518316.83349609375	-0.8749315192220433	
518336.36474609375	-0.8753402084517727	
518355.89599609375	-0.873633329904079	
518375.42724609375	-0.8752921273659222	
518394.95849609375	-0.8741862623913601	
518414.48974609375	-0.8753402084517727	
518434.02099609375	-0.8736573704470043	
518453.55224609375	-0.8775759789438223	
518473.08349609375	-0.8760133436536801	
518492.61474609375	-0.8673587482005852	
518512.14599609375	-0.8625265990726073	
518531.67724609375	-0.8649787344509842	
518551.20849609375	-0.8657239912816673	
518570.73974609375	-0.8650748966226852	
518590.27099609375	-0.8557712065106082	
518609.80224609375	-0.8425489079017132	
518629.33349609375	-0.8351203801378068	
518648.86474609375	-0.8317306635853446	
518668.39599609375	-0.8285092308333593	
518687.92724609375	-0.830408433724455	
518707.45849609375	-0.8307209607824836	
518726.98974609375	-0.8216095950138086	
518746.52099609375	-0.8179554324891686	
518766.05224609375	-0.8118010535003011	
518785.58349609375	-0.7999250252952209	
518805.11474609375	-0.7929051867610439	
518824.64599609375	-0.7900203216100122	
518844.17724609375	-0.7905972946402186	
518863.70849609375	-0.7927128624176418	
518883.23974609375	-0.788265361976468	
518902.77099609375	-0.7865344428858491	
518922.30224609375	-0.7887702133778985	
518941.83349609375	-0.7786731853492879	
518961.36474609375	-0.7890586998930017	
518980.89599609375	-0.7901405243246385	
519000.42724609375	-0.7925205380742397	
519019.95849609375	-0.7924003353596134	
519039.48974609375	-0.7857170644263901	
519059.02099609375	-0.7862940374565964	
519078.55224609375	-0.793458119248325	
519098.08349609375	-0.8016078632999893	
519117.61474609375	-0.8024252417594483	
519137.14599609375	-0.8097095262658032	
519156.67724609375	-0.8183881622618233	
519176.20849609375	-0.8258888116545056	
519195.73974609375	-0.8227635410742212	
519215.27099609375	-0.824374257450214	
519234.80224609375	-0.8291342849494161	
519254.33349609375	-0.8316585419565689	
519273.86474609375	-0.8398082860082332	
519293.39599609375	-0.8460828677117269	
519312.92724609375	-0.8555308010813556	
519332.45849609375	-0.8617092206131483	
519351.98974609375	-0.8681280455741937	
519371.52099609375	-0.8674549103722863	
519391.05224609375	-0.8706763431242717	
519410.58349609375	-0.8733688839319012	
519430.11474609375	-0.8700512890082148	
519449.64599609375	-0.8685848158897737	
519469.17724609375	-0.86322377481744	
519488.70849609375	-0.8604591123810346	
519508.23974609375	-0.8608918421536893	
519527.77099609375	-0.8551461523945514	
519547.30224609375	-0.856660706598843	
519566.83349609375	-0.8595936528357251	
519586.36474609375	-0.8587522338333409	
519605.89599609375	-0.8609399232395398	
519625.42724609375	-0.8464915569414565	
519644.95849609375	-0.8484628814613281	
519664.48974609375	-0.8540883685058398	
519684.02099609375	-0.8538720036195123	
519703.55224609375	-0.8593532474064725	
519723.08349609375	-0.854833625336523	
519742.61474609375	-0.8550259496799251	
519762.14599609375	-0.8542085712204661	
519781.67724609375	-0.8608918421536893	
519801.20849609375	-0.8612764908404935	
519820.73974609375	-0.8545932199072703	
519840.27099609375	-0.8590647608913693	
519859.80224609375	-0.8598340582649777	
519879.33349609375	-0.8560116119398609	
519898.86474609375	-0.855290395652103	
519918.39599609375	-0.8574059634295261	
519937.92724609375	-0.8657961129104431	
519957.45849609375	-0.8657961129104431	
519976.98974609375	-0.8647623695646568	
519996.52099609375	-0.8664452075694252	
520016.05224609375	-0.8653874236807136	
520035.58349609375	-0.860314869123483	
520055.11474609375	-0.8539200847053628	
520074.64599609375	-0.8481743949462249	
520094.17724609375	-0.8495447058929649	
520113.70849609375	-0.8515160304128365	
520133.23974609375	-0.8494485437212639	
520152.77099609375	-0.8512035033548081	
520172.30224609375	-0.852934422445427	
520191.83349609375	-0.8526218953873986	
520211.36474609375	-0.856300098454964	
520230.89599609375	-0.8581512202602093	
520250.42724609375	-0.8612524502975683	
520269.95849609375	-0.8673827887435105	
520289.48974609375	-0.8685607753468484	
520309.02099609375	-0.8691137078341294	
520328.55224609375	-0.8698108835789622	
520348.08349609375	-0.8566126255129924	
520367.61474609375	-0.864690247935881	
520387.14599609375	-0.8559875713969356	
520406.67724609375	-0.8529103819025018	
520426.20849609375	-0.8508909762967797	
520445.73974609375	-0.8460588271688017	
520465.27099609375	-0.8468040839994849	
520484.80224609375	-0.8472848948579902	
520504.33349609375	-0.8486552058047302	
520523.86474609375	-0.849280259920787	
520543.39599609375	-0.8476455030018691	
520562.92724609375	-0.8541845306775409	
520582.45849609375	-0.8589205176338177	
520601.98974609375	-0.8535354360185586	
520621.52099609375	-0.8506986519533776	
520641.05224609375	-0.8488956112339828	
520660.58349609375	-0.8508188546680039	
520680.11474609375	-0.8576944499446293	
520699.64599609375	-0.8564683822554409	
520719.17724609375	-0.8523574494152207	
520738.70849609375	-0.8546893820789714	
520758.23974609375	-0.8583195040606861	
520777.77099609375	-0.8539922063341386	
520797.30224609375	-0.8473089354009155	
520816.83349609375	-0.8482945976608512	
520836.36474609375	-0.8476935840877197	
520855.89599609375	-0.846539638027307	
520875.42724609375	-0.8420440565002827	
520894.95849609375	-0.842068097043208	
520914.48974609375	-0.8375244344303331	
520934.02099609375	-0.8404573806672153	
