"sep=	"
Shimmer_85E7_TimestampSync_Unix_CAL	Shimmer_85E7_EMG_CH1_24BIT_CAL	
ms	mV	
1.6378340469533015E12	8.361805680808109	
1.6378340469728318E12	8.347814084825606	
1.637834046992362E12	8.369979465402698	
1.6378340470118923E12	8.37514818213163	
1.6378340470314226E12	8.374811614530676	
1.6378340470509526E12	8.372696046753253	
1.637834047070483E12	8.376037682219865	
1.6378340470900132E12	8.367503289481396	
1.6378340471095435E12	8.379211033886	
1.6378340471290737E12	8.37240756023815	
1.637834047148604E12	8.377335871537829	
1.6378340471681343E12	8.373465344126862	
1.6378340471876646E12	8.375677074075986	
1.6378340472071948E12	8.374475046929723	
1.637834047226725E12	8.380364979946412	
1.6378340472462554E12	8.377720520224633	
1.6378340472657856E12	8.374859695616527	
1.637834047285316E12	8.373176857611758	
1.6378340473048462E12	8.365123275731795	
1.6378340473243765E12	8.370772803319232	
1.6378340473439067E12	8.375340506475032	
1.637834047363437E12	8.378153249997288	
1.637834047382967E12	8.367936019254051	
1.6378340474024973E12	8.375220303760406	
1.6378340474220276E12	8.375580911904285	
1.6378340474415579E12	8.363969329671383	
1.6378340474610881E12	8.372744127839104	
1.6378340474806184E12	8.378273452711914	
1.6378340475001487E12	8.36646954613561	
1.637834047519679E12	8.367863897625275	
1.6378340475392092E12	8.378105168911437	
1.6378340475587395E12	8.370748762776307	
1.6378340475782698E12	8.367166721880443	
1.6378340475978E12	8.371518060149915	
1.6378340476173303E12	8.367767735453574	
1.6378340476368606E12	8.378273452711914	
1.6378340476563909E12	8.375508790275509	
1.6378340476759211E12	8.373970195528292	
1.6378340476954514E12	8.372936452182506	
1.6378340477149814E12	8.382432466637985	
1.6378340477345117E12	8.351035517577591	
1.637834047754042E12	8.389380183543386	
1.6378340477735723E12	8.381398723292198	
1.6378340477931025E12	8.387913710424945	
1.6378340478126328E12	8.379595682572804	
1.637834047832163E12	8.39022160254577	
1.6378340478516934E12	8.381350642206348	
1.6378340478712236E12	8.389572507886788	
1.637834047890754E12	8.382240142294583	
1.6378340479102842E12	8.38702421033671	
1.6378340479298145E12	8.384548034415408	
1.6378340479493447E12	8.383610453241323	
1.637834047968875E12	8.383922980299351	
1.6378340479884053E12	8.38250458826676	
1.6378340480079355E12	8.388683007798553	
1.6378340480274658E12	8.385293291246091	
1.6378340480469958E12	8.383442169440846	
1.6378340480665261E12	8.382168020665807	
1.6378340480860564E12	8.375076060502854	
1.6378340481055867E12	8.377311830994904	
1.637834048125117E12	8.383346007269145	
1.6378340481446472E12	8.385966426447999	
1.6378340481641775E12	8.383514291069622	
1.6378340481837078E12	8.372672006210328	
1.637834048203238E12	8.378417695969466	
1.6378340482227683E12	8.372311398066449	
1.6378340482422986E12	8.38240842609506	
1.6378340482618289E12	8.381446804378049	
1.6378340482813591E12	8.390101399831144	
1.6378340483008894E12	8.38788966988202	
1.6378340483204197E12	8.384932683102212	
1.63783404833995E12	8.377311830994904	
1.6378340483594802E12	8.36692631645119	
1.6378340483790103E12	8.367479248938471	
1.6378340483985405E12	8.381807412521928	
1.6378340484180708E12	8.394909508416196	
1.637834048437601E12	8.38286519641064	
1.6378340484571313E12	8.39245737303782	
1.6378340484766616E12	8.376037682219865	
1.637834048496192E12	8.359401626515583	
1.6378340485157222E12	8.383610453241323	
1.6378340485352524E12	8.39022160254577	
1.6378340485547827E12	8.373056654897132	
1.637834048574313E12	8.37656657416422	
1.6378340485938433E12	8.376374249820818	
1.6378340486133735E12	8.37880234465627	
1.6378340486329038E12	8.373585546841488	
1.637834048652434E12	8.388731088884404	
1.6378340486719644E12	8.397193359994096	
1.6378340486914946E12	8.387769467167393	
1.6378340487110247E12	8.390413926889172	
1.637834048730555E12	8.389668670058489	
1.6378340487500852E12	8.381062155691245	
1.6378340487696155E12	8.377984966196811	
1.6378340487891458E12	8.382648831524312	
1.637834048808676E12	8.391279386434482	
1.6378340488282063E12	8.389019575399507	
1.6378340488477366E12	8.387673304995692	
1.6378340488672668E12	8.390317764717471	
1.637834048886797E12	8.386134710248475	
1.6378340489063274E12	8.380605385375665	
1.6378340489258577E12	8.384403791157856	
1.637834048945388E12	8.390846656661827	
1.6378340489649182E12	8.387216534680112	
1.6378340489844485E12	8.386014507533849	
1.6378340490039788E12	8.388683007798553	
1.637834049023509E12	8.381615088178526	
1.637834049043039E12	8.387745426624468	
1.6378340490625693E12	8.383610453241323	
1.6378340490820996E12	8.372744127839104	
1.63783404910163E12	8.371782506122093	
1.6378340491211602E12	8.382985399125266	
1.6378340491406904E12	8.396736589678516	
1.6378340491602207E12	8.387360777937664	
1.637834049179751E12	8.387793507710319	
1.6378340491992812E12	8.387048250879635	
1.6378340492188115E12	8.38067750700444	
1.6378340492383418E12	8.356156153220672	
1.637834049257872E12	8.37108533037726	
1.6378340492774023E12	8.374835655073602	
1.6378340492969326E12	8.384812480387586	
1.637834049316463E12	8.37971588528743	
1.6378340493359932E12	8.366036816362955	
1.6378340493555234E12	8.368729357170585	
1.6378340493750535E12	8.380917912433693	
1.6378340493945837E12	8.379018709542597	
1.637834049414114E12	8.358608288599049	
1.6378340494336443E12	8.373874033356591	
1.6378340494531746E12	8.375436668646733	
1.6378340494727048E12	8.37555687136136	
1.637834049492235E12	8.374859695616527	
1.6378340495117654E12	8.382360345009209	
1.6378340495312957E12	8.382696912610163	
1.637834049550826E12	8.386495318392354	
1.6378340495703562E12	8.374955857788228	
1.6378340495898865E12	8.37880234465627	
1.6378340496094167E12	8.374523128015573	
1.637834049628947E12	8.38286519641064	
1.6378340496484773E12	8.383754696498874	
1.6378340496680076E12	8.38067750700444	
1.6378340496875378E12	8.384115304642753	
1.6378340497070679E12	8.37834557434069	
1.6378340497265981E12	8.384956723645137	
1.6378340497461284E12	8.383057520754042	
1.6378340497656587E12	8.385004804730988	
1.637834049785189E12	8.385822183190447	
1.6378340498047192E12	8.388154115854197	
1.6378340498242495E12	8.384716318215885	
1.6378340498437798E12	8.392938183896325	
1.63783404986331E12	8.388009872596646	
1.6378340498828403E12	8.383153682925743	
1.6378340499023706E12	8.380028412345458	
1.637834049921901E12	8.385437534503643	
1.6378340499414312E12	8.383971061385202	
1.6378340499609614E12	8.382672872067237	
1.6378340499804917E12	8.386038548076774	
1.637834050000022E12	8.383129642382817	
1.6378340500195522E12	8.383273885640369	
1.6378340500390823E12	8.3860625886197	
1.6378340500586125E12	8.391688075664211	
1.6378340500781428E12	8.383562372155472	
1.637834050097673E12	8.384764399301735	
1.6378340501172034E12	8.391808278378837	
1.6378340501367336E12	8.387817548253244	
1.637834050156264E12	8.383490250526696	
1.6378340501757942E12	8.384836520930511	
1.6378340501953245E12	8.379114871714298	
1.6378340502148547E12	8.379956290716683	
1.637834050234385E12	8.379908209630832	
1.6378340502539153E12	8.36418569455771	
1.6378340502734456E12	8.377167587737352	
1.6378340502929758E12	8.389885034944816	
1.637834050312506E12	8.37382595227074	
1.6378340503320364E12	8.373537465755637	
1.6378340503515667E12	8.380244777231786	
1.6378340503710967E12	8.383754696498874	
1.637834050390627E12	8.39022160254577	
1.6378340504101572E12	8.396592346420965	
1.6378340504296875E12	8.392072724351015	
1.6378340504492178E12	8.383490250526696	
1.637834050468748E12	8.382672872067237	
1.6378340504882783E12	8.38565389938997	
1.6378340505078086E12	8.384668237130034	
1.6378340505273389E12	8.385846223733372	
1.6378340505468691E12	8.392120805436866	
1.6378340505663994E12	8.401328333377242	
1.6378340505859297E12	8.390606251232574	
1.63783405060546E12	8.395534562532253	
1.6378340506249902E12	8.389332102457535	
1.6378340506445205E12	8.377407993166605	
1.6378340506640508E12	8.372936452182506	
1.637834050683581E12	8.376278087649117	
1.637834050703111E12	8.384499953329557	
1.6378340507226414E12	8.378225371626064	
1.6378340507421716E12	8.371013208748485	
1.637834050761702E12	8.368512992284257	
1.6378340507812322E12	8.358848694028302	
1.6378340508007625E12	8.363440437727027	
1.6378340508202927E12	8.375628992990135	
1.637834050839823E12	8.379788006916206	
1.6378340508593533E12	8.371614222321616	
1.6378340508788835E12	8.378994668999672	
1.6378340508984138E12	8.371710384493317	
1.637834050917944E12	8.378465777055316	
1.6378340509374744E12	8.379283155514775	
1.6378340509570046E12	8.388875332141955	
1.637834050976535E12	8.386134710248475	
1.6378340509960652E12	8.391207264805706	
1.6378340510155955E12	8.389885034944816	
1.6378340510351255E12	8.393587278555307	
1.6378340510546558E12	8.376350209277893	
1.637834051074186E12	8.362214370037838	
1.6378340510937163E12	8.385365412874867	
1.6378340511132466E12	8.390942818833528	
1.6378340511327769E12	8.390341805260396	
1.6378340511523071E12	8.386302994048952	
1.6378340511718374E12	8.391447670234959	
1.6378340511913677E12	8.39428445430014	
1.637834051210898E12	8.387769467167393	
1.6378340512304282E12	8.387144413051336	
1.6378340512499585E12	8.393106467696802	
1.6378340512694888E12	8.390822616118902	
1.637834051289019E12	8.393539197469456	
1.6378340513085493E12	8.3860625886197	
1.6378340513280796E12	8.39524607601715	
1.6378340513476099E12	8.398275184425733	
1.63783405136714E12	8.40803564485339	
1.6378340513866702E12	8.403203495725412	
1.6378340514062004E12	8.39894831962764	
1.6378340514257307E12	8.397602049223826	
1.637834051445261E12	8.403852590384394	
1.6378340514647913E12	8.40748271236611	
1.6378340514843215E12	8.41068010457517	
1.6378340515038518E12	8.40945403688598	
1.637834051523382E12	8.410127172087888	
1.6378340515429124E12	8.403684306583918	
1.6378340515624426E12	8.408877063855774	
1.637834051581973E12	8.41260334800919	
1.6378340516015032E12	8.409598280143532	
1.6378340516210334E12	8.411978293893133	
1.6378340516405637E12	8.410079091002038	
1.637834051660094E12	8.414646794157838	
1.6378340516796243E12	8.422508051694399	
1.6378340516991543E12	8.417098929536214	
1.6378340517186846E12	8.434624485328733	
1.6378340517382148E12	8.436980458535409	
1.637834051757745E12	8.433350336553694	
1.6378340517772754E12	8.428494146882791	
1.6378340517968057E12	8.433133971667367	
1.637834051816336E12	8.43748530993684	
1.6378340518358662E12	8.435057215101388	
1.6378340518553965E12	8.439144107398683	
1.6378340518749268E12	8.443399283496454	
1.637834051894457E12	8.443110796981351	
1.6378340519139873E12	8.455684000931264	
1.6378340519335176E12	8.439336431742085	
1.6378340519530479E12	8.447029405478169	
1.6378340519725781E12	8.451597108633969	
1.6378340519921084E12	8.464266474755583	
1.6378340520116387E12	8.418180753967851	
1.6378340520311687E12	8.426042011504414	
1.637834052050699E12	8.450154676058453	
1.6378340520702292E12	8.478258070738086	
1.6378340520897595E12	8.448399716424909	
1.6378340521092898E12	8.414502550900286	
1.63783405212882E12	8.44671687842014	
1.6378340521483503E12	8.446308189190411	
1.6378340521678806E12	8.467127299363689	
1.637834052187411E12	8.448183351538582	
1.6378340522069412E12	8.48453265244158	
1.6378340522264714E12	8.456164811789769	
1.6378340522460017E12	8.406473009563248	
1.637834052265532E12	8.417916307995673	
1.6378340522850623E12	8.385413493960717	
1.6378340523045925E12	8.323893744614969	
1.6378340523241228E12	8.198690597060196	
1.637834052343653E12	7.979128318523763	
1.637834052363183E12	7.887918498665313	
1.6378340523827134E12	7.808584707011943	
1.6378340524022437E12	7.866786861434006	
1.637834052421774E12	7.6908100872210765	
1.6378340524413042E12	7.683862370315675	
1.6378340524608345E12	7.700907115249687	
1.6378340524803647E12	7.800146476445176	
1.637834052499895E12	7.815316059031017	
1.6378340525194253E12	7.716894076294988	
1.6378340525389556E12	7.910732973901388	
1.6378340525584858E12	8.055529163940252	
1.637834052578016E12	8.207585597942543	
1.6378340525975464E12	8.234438884390062	
1.6378340526170767E12	8.460852717660195	
1.637834052636607E12	8.550283537342176	
1.6378340526561372E12	8.533070508607686	
1.6378340526756675E12	8.626492058415261	
1.6378340526951975E12	8.657023547930345	
1.6378340527147278E12	8.641036586885045	
1.637834052734258E12	8.671880603458158	
1.6378340527537883E12	8.628030653162478	
1.6378340527733186E12	8.551437483402589	
1.6378340527928489E12	8.636084235042441	
1.6378340528123792E12	8.58583950032864	
1.6378340528319094E12	8.639113343451024	
1.6378340528514397E12	8.548889185852511	
1.63783405287097E12	8.530978981373188	
1.6378340528905002E12	8.544032996181606	
1.6378340529100305E12	8.540739441800845	
1.6378340529295608E12	8.528286440565559	
1.637834052949091E12	8.49554322110135	
1.6378340529686213E12	8.501649519004367	
1.6378340529881516E12	8.574179837009888	
1.6378340530076816E12	8.49087935577385	
1.637834053027212E12	8.467656191308045	
1.6378340530467422E12	8.407410590737333	
1.6378340530662725E12	8.42474382218645	
1.6378340530858027E12	8.424815943815226	
1.637834053105333E12	8.511818668661753	
1.6378340531248633E12	8.53975377954091	
1.6378340531443936E12	8.541821266232482	
1.6378340531639238E12	8.491624612604532	
1.637834053183454E12	8.464579001813611	
1.6378340532029844E12	8.445058080958297	
1.6378340532225146E12	8.468834177911383	
1.637834053242045E12	8.478738881596591	
1.6378340532615752E12	8.46082867711727	
1.6378340532811055E12	8.446043743218233	
1.6378340533006357E12	8.460660393316793	
1.637834053320166E12	8.413661131897902	
1.637834053339696E12	8.448976689455115	
1.6378340533592263E12	8.457487041650658	
1.6378340533787566E12	8.440610580517124	
1.6378340533982869E12	8.430080822715858	
1.6378340534178171E12	8.432845485152264	
1.6378340534373474E12	8.41904621351316	
1.6378340534568777E12	8.433037809495666	
1.637834053476408E12	8.433494579811246	
1.6378340534959382E12	8.407675036709511	
1.6378340535154685E12	8.39428445430014	
1.6378340535349988E12	8.36824854631208	
1.637834053554529E12	8.420440565002826	
1.6378340535740593E12	8.403083293010786	
1.6378340535935896E12	8.415151645559268	
1.6378340536131199E12	8.426811308878023	
1.6378340536326501E12	8.431354971490897	
1.6378340536521804E12	8.418300956682478	
1.6378340536717104E12	8.367479248938471	
1.6378340536912407E12	8.339640300231016	
1.637834053710771E12	8.293867106501313	
1.6378340537303013E12	8.356035950506046	
1.6378340537498315E12	8.394596981358168	
1.6378340537693618E12	8.356757166793804	
1.637834053788892E12	8.323677379728641	
1.6378340538084224E12	8.361252748320828	
1.6378340538279526E12	8.347309233424175	
1.637834053847483E12	8.266244522680186	
1.6378340538670132E12	8.297088539253298	
1.6378340538865435E12	8.333461880699224	
1.6378340539060737E12	8.318773108971888	
1.637834053925604E12	8.206672057311383	
1.6378340539451343E12	8.29682409328112	
1.6378340539646646E12	8.428518187425716	
1.6378340539841948E12	8.326345879993346	
1.6378340540037249E12	8.28723191665394	
1.6378340540232551E12	8.338077664940874	
1.6378340540427854E12	8.446476472990888	
1.6378340540623157E12	8.451404784290567	
1.637834054081846E12	8.246098547708815	
1.6378340541013762E12	8.386254912963102	
1.6378340541209065E12	8.401833184778672	
1.6378340541404368E12	8.485374071443964	
1.637834054159967E12	8.600672515313528	
1.6378340541794973E12	8.46772831293682	
1.6378340541990276E12	8.352189463638004	
1.6378340542185579E12	8.322860001269182	
1.6378340542380881E12	8.324062028415446	
1.6378340542576184E12	8.281846835038682	
1.6378340542771487E12	8.327884474740562	
1.637834054296679E12	8.426667065620471	
1.6378340543162092E12	8.36368084315628	
1.6378340543357393E12	8.330480853376491	
1.6378340543552695E12	8.366132978534656	
1.6378340543747998E12	8.380316898860562	
1.63783405439433E12	8.366373383963909	
1.6378340544138604E12	8.355194531503662	
1.6378340544333906E12	8.34911227414357	
1.637834054452921E12	8.374931817245303	
1.6378340544724512E12	8.367455208395546	
1.6378340544919814E12	8.355747463990943	
1.6378340545115117E12	8.356156153220672	
1.637834054531042E12	8.371758465579168	
1.6378340545505723E12	8.404982495901882	
1.6378340545701025E12	8.382720953153088	
1.6378340545896328E12	8.35098743649174	
1.637834054609163E12	8.383947020842276	
1.6378340546286934E12	8.376590614707146	
1.6378340546482236E12	8.332957029297793	
1.6378340546677537E12	8.336034218792227	
1.637834054687284E12	8.321008879463937	
1.6378340547068142E12	8.320191501004478	
1.6378340547263445E12	8.33399077264358	
1.6378340547458748E12	8.356997572223056	
1.637834054765405E12	8.333702286128476	
1.6378340547849353E12	8.346011044106211	
1.6378340548044656E12	8.380821750261992	
1.6378340548239958E12	8.32942306948778	
1.6378340548435261E12	8.352982801554537	
1.6378340548630564E12	8.379860128544982	
1.6378340548825867E12	8.406569171734949	
1.637834054902117E12	8.35550705856169	
1.6378340549216472E12	8.266244522680186	
1.6378340549411775E12	8.326033352935317	
1.6378340549607078E12	8.290405268320075	
1.637834054980238E12	8.245473493592758	
1.637834054999768E12	8.287111713939314	
1.6378340550192983E12	8.279298537488604	
1.6378340550388286E12	8.04680244685838	
1.637834055058359E12	8.010332943240755	
1.6378340550778892E12	8.100725384639746	
1.6378340550974194E12	8.15988916077882	
1.6378340551169497E12	8.170803567266889	
1.63783405513648E12	8.190564893551457	
1.6378340551560103E12	8.37784072293926	
1.6378340551755405E12	8.288457984343129	
1.6378340551950708E12	8.331875204866156	
1.637834055214601E12	8.256556183881305	
1.6378340552341313E12	8.416425794334307	
1.6378340552536616E12	8.39209676489394	
1.637834055273192E12	8.424960187072777	
1.6378340552927222E12	8.368320667940855	
1.6378340553122524E12	8.307618297054566	
1.6378340553317825E12	8.471815205234115	
1.6378340553513127E12	8.368440870655482	
1.637834055370843E12	8.366301262335133	
1.6378340553903733E12	8.457030271335078	
1.6378340554099036E12	8.478883124854143	
1.6378340554294338E12	8.51052047934379	
1.637834055448964E12	8.493908464182432	
1.6378340554684944E12	8.344328206101443	
1.6378340554880247E12	8.490590869258746	
1.637834055507555E12	8.50741924930643	
1.6378340555270852E12	8.41991167305847	
1.6378340555466155E12	8.492994923551272	
1.6378340555661458E12	8.533839805981295	
1.637834055585676E12	8.534464860097351	
1.6378340556052063E12	8.413132239953546	
1.6378340556247366E12	8.407963523224614	
1.6378340556442668E12	8.399597414286623	
1.6378340556637969E12	8.392625656838296	
1.6378340556833271E12	8.337092002680938	
1.6378340557028574E12	8.398154981711107	
1.6378340557223877E12	8.315936324906707	
1.637834055741918E12	8.325624663705588	
1.6378340557614482E12	8.317739365626101	
1.6378340557809785E12	8.315335311333575	
1.6378340558005088E12	8.311464783922608	
1.637834055820039E12	8.320528068605432	
1.6378340558395693E12	8.31348418952833	
1.6378340558590996E12	8.316345014136436	
1.63783405587863E12	8.28987637637572	
1.6378340558981602E12	8.328653772114171	
1.6378340559176904E12	8.346107206277912	
1.6378340559372207E12	8.332380056267587	
1.637834055956751E12	8.40981464502986	
1.6378340559762812E12	8.318388460285083	
1.6378340559958113E12	8.31257064889717	
1.6378340560153416E12	8.322643636382855	
1.6378340560348718E12	8.331658839979829	
1.637834056054402E12	8.330528934462341	
1.6378340560739324E12	8.362022045694436	
1.6378340560934626E12	8.337067962138013	
1.637834056112993E12	8.35956991031606	
1.6378340561325232E12	8.316657541194465	
1.6378340561520535E12	8.256940832568109	
1.6378340561715837E12	8.352501990696032	
1.637834056191114E12	8.330552975005267	
1.6378340562106443E12	8.274225982931373	
1.6378340562301746E12	8.302185134353456	
1.6378340562497048E12	8.171957513327301	
1.637834056269235E12	8.26485017119052	
1.6378340562887654E12	8.228981681146028	
1.6378340563082957E12	8.209701165719967	
1.6378340563278257E12	8.338294029827201	
1.637834056347356E12	8.234102316789109	
1.6378340563668862E12	8.19542108322236	
1.6378340563864165E12	8.146402416197747	
1.6378340564059468E12	8.139767226350374	
1.637834056425477E12	8.299083904316097	
1.6378340564450073E12	8.367551370567247	
1.6378340564645376E12	8.320720392948834	
1.6378340564840679E12	8.226289140338398	
1.6378340565035981E12	8.224846707762882	
1.6378340565231284E12	8.505520046415334	
1.6378340565426587E12	8.555548416242809	
1.637834056562189E12	8.438158445138747	
1.6378340565817192E12	8.38793775096787	
1.6378340566012495E12	8.181333325068156	
1.6378340566207798E12	8.399020441256416	
1.63783405664031E12	8.361276788863753	
1.63783405665984E12	8.335938056620526	
1.6378340566793704E12	8.357766869596665	
1.6378340566989006E12	8.379355277143551	
1.637834056718431E12	8.491360166632354	
1.6378340567379612E12	8.44666879733429	
1.6378340567574915E12	8.31937412254502	
1.6378340567770217E12	8.013746700336142	
1.637834056796552E12	7.978359021150155	
1.6378340568160823E12	7.821302154219407	
1.6378340568356125E12	8.028940323464909	
1.6378340568551428E12	8.151450930212052	
1.637834056874673E12	8.192608339700104	
1.6378340568942034E12	8.655821520784082	
1.6378340569137336E12	8.283770078472703	
1.637834056933264E12	8.319903014489375	
1.6378340569527942E12	8.329711556002882	
1.6378340569723245E12	8.3199270550323	
1.6378340569918545E12	8.338486354170604	
1.6378340570113848E12	8.353391490784267	
1.637834057030915E12	8.336442908021956	
1.6378340570504453E12	8.295021052561726	
1.6378340570699756E12	8.365868532562478	
1.6378340570895059E12	8.299925323318481	
1.6378340571090361E12	8.29179961980974	
1.6378340571285664E12	8.300309972005286	
1.6378340571480967E12	8.322980203983809	
1.637834057167627E12	8.284226848788283	
1.6378340571871572E12	8.30663263479463	
1.6378340572066875E12	8.266893617339168	
1.6378340572262178E12	8.295069133647576	
1.637834057245748E12	8.348871868714317	
1.6378340572652783E12	8.337452610824817	
1.6378340572848086E12	8.333413799613373	
1.6378340573043389E12	8.335889975534675	
1.637834057323869E12	8.309541540488587	
1.6378340573433992E12	8.327740231483011	
1.6378340573629294E12	8.435225498901865	
1.6378340573824597E12	8.198882921403598	
1.63783405740199E12	8.385125007445614	
1.6378340574215203E12	8.267422509283524	
1.6378340574410505E12	8.39570284633273	
1.6378340574605808E12	8.282183402639635	
1.637834057480111E12	8.418373078311253	
1.6378340574996414E12	8.327547907139609	
1.6378340575191716E12	8.299300269202424	
1.637834057538702E12	8.280188037576838	
1.6378340575582322E12	8.252902021356665	
1.6378340575777625E12	8.090363910638958	
1.6378340575972927E12	8.177174311142085	
1.637834057616823E12	7.856906198291723	
1.6378340576363533E12	7.865512712658967	
1.6378340576558833E12	7.712807183997693	
1.6378340576754136E12	7.71110030545	
1.6378340576949438E12	7.770240041046148	
1.637834057714474E12	7.743458876227404	
1.6378340577340044E12	7.658307273186121	
1.6378340577535347E12	7.737472781039013	
1.637834057773065E12	7.889697498841782	
1.6378340577925952E12	7.72941919915905	
1.6378340578121255E12	7.630828932622544	
1.6378340578316558E12	7.666769544295813	
1.637834057851186E12	7.725115941975428	
1.6378340578707163E12	7.453025077147294	
1.6378340578902466E12	7.345371525927964	
1.6378340579097769E12	7.175525090160977	
1.6378340579293071E12	7.581858346683783	
1.6378340579488374E12	7.671289166365763	
1.6378340579683677E12	7.797982827581902	
1.6378340579878977E12	7.883831606368018	
1.637834058007428E12	8.08101213944103	
1.6378340580269583E12	8.241194276952061	
1.6378340580464885E12	7.9721325205325115	
1.6378340580660188E12	8.040840392212914	
1.637834058085549E12	8.373970195528292	
1.6378340581050793E12	8.169313053605523	
1.6378340581246096E12	8.098153046546743	
1.63783405814414E12	8.195901894080865	
1.6378340581636702E12	8.37382595227074	
1.6378340581832004E12	8.280909253864596	
1.6378340582027307E12	8.108586642176308	
1.637834058222261E12	8.10659127711351	
1.6378340582417913E12	8.174698135220783	
1.6378340582613215E12	8.160273809465624	
1.6378340582808518E12	8.145200389051483	
1.637834058300382E12	8.12801140085992	
1.637834058319912E12	8.431162647147495	
1.6378340583394424E12	7.950544112985624	
1.6378340583589727E12	8.169000526547494	
1.637834058378503E12	8.178328257202498	
1.6378340583980332E12	8.304949796789861	
1.6378340584175635E12	8.042475149131832	
1.6378340584370938E12	8.457270676764331	
1.637834058456624E12	7.984056629823442	
1.6378340584761543E12	8.064664570251852	
1.6378340584956846E12	8.045624460255041	
1.6378340585152148E12	7.961578722188321	
1.637834058534745E12	8.429551930771503	
1.6378340585542754E12	7.882749781936381	
1.6378340585738057E12	7.953260694336179	
1.637834058593336E12	8.126881495342433	
1.6378340586128662E12	8.35916122108633	
1.6378340586323965E12	7.824211059913364	
1.6378340586519265E12	7.768629324670155	
1.6378340586714568E12	8.161067147382157	
1.637834058690987E12	7.80053112513198	
1.6378340587105173E12	8.19318531273031	
1.6378340587300476E12	8.153614579075326	
1.637834058749578E12	8.08872915372004	
1.6378340587691082E12	8.142243402271676	
1.6378340587886384E12	7.90087635130203	
1.6378340588081687E12	8.253647278187348	
1.637834058827699E12	8.025406363654895	
1.6378340588472292E12	7.992975671248715	
1.6378340588667595E12	8.175082783907587	
1.6378340588862898E12	7.952803924020599	
1.63783405890582E12	8.15851884983208	
1.6378340589253503E12	8.249295939917875	
1.6378340589448806E12	7.8832546333378115	
1.6378340589644106E12	8.04598506839892	
1.637834058983941E12	8.064712651337702	
1.6378340590034712E12	8.301007147750118	
1.6378340590230015E12	8.23460716819054	
1.6378340590425317E12	7.978911953637436	
1.637834059062062E12	8.184626879448917	
1.6378340590815923E12	8.236650614339187	
1.6378340591011226E12	7.990643738584964	
1.6378340591206528E12	8.251171102266046	
1.637834059140183E12	8.201094651352722	
1.6378340591597134E12	8.014828524767779	
1.6378340591792437E12	8.110077155837674	
1.637834059198774E12	8.153374173646073	
1.6378340592183042E12	8.036657337743918	
1.6378340592378345E12	8.131232833611906	
1.6378340592573647E12	8.123539859875821	
1.637834059276895E12	8.232900289642846	
1.637834059296425E12	8.24429550698942	
1.6378340593159553E12	8.063125975504635	
1.6378340593354856E12	7.924027394139059	
1.6378340593550159E12	8.048292960519746	
1.6378340593745461E12	8.154383876448934	
1.6378340593940764E12	8.024204336508632	
1.6378340594136067E12	8.25206060235428	
1.637834059433137E12	7.945255193542066	
1.6378340594526672E12	8.061443137499866	
1.6378340594721975E12	8.142267442814601	
1.6378340594917278E12	8.20217647578436	
1.637834059511258E12	8.130944347096802	
1.6378340595307883E12	8.008001010577004	
1.6378340595503186E12	8.140560564266908	
1.6378340595698489E12	8.159336228291538	
1.6378340595893792E12	8.057861096604002	
1.6378340596089094E12	8.083536396448183	
1.6378340596284395E12	8.144671497107128	
1.6378340596479697E12	8.130583738952923	
1.6378340596675E12	8.004755537282094	
1.6378340596870303E12	8.055240677425148	
1.6378340597065605E12	7.89854441863828	
1.6378340597260908E12	8.110750291039581	
1.637834059745621E12	8.082815180160425	
1.6378340597651514E12	8.10293711458887	
1.6378340597846816E12	8.042018378816252	
1.637834059804212E12	8.039253716379847	
1.6378340598237422E12	8.018963498150924	
1.6378340598432725E12	7.814089991341828	
1.6378340598628027E12	8.243454087987036	
1.637834059882333E12	8.001894712673987	
1.6378340599018633E12	8.14253188878678	
1.6378340599213936E12	8.12805948194577	
1.6378340599409238E12	8.05305298801895	
1.6378340599604539E12	8.09055623498236	
1.6378340599799841E12	8.010717591927559	
1.6378340599995144E12	8.104836317479966	
1.6378340600190447E12	7.9871097787749505	
1.637834060038575E12	8.092503518959306	
1.6378340600581052E12	7.923979313053208	
1.6378340600776355E12	8.0759395848838	
1.6378340600971658E12	8.017088335802754	
1.637834060116696E12	8.159961282407595	
1.6378340601362263E12	8.074208665793181	
1.6378340601557566E12	8.040263419182708	
1.6378340601752869E12	7.87854268692446	
1.6378340601948171E12	8.12851625226135	
1.6378340602143474E12	8.053726123220857	
1.6378340602338777E12	8.042595351846458	
1.637834060253408E12	7.8096424909006545	
1.6378340602729382E12	7.974752939711365	
1.6378340602924683E12	8.058798677778087	
1.6378340603119985E12	7.8570744820922	
1.6378340603315288E12	7.828105627867257	
1.637834060351059E12	7.83839498023927	
1.6378340603705894E12	8.066587813685873	
1.6378340603901196E12	7.873806699968183	
1.63783406040965E12	8.146522618912373	
1.6378340604291802E12	7.972877777363195	
1.6378340604487104E12	8.009010713379865	
1.6378340604682407E12	7.9634538845364915	
1.637834060487771E12	7.955376262113602	
1.6378340605073013E12	8.222562856184982	
1.6378340605268315E12	7.884552822655776	
1.6378340605463618E12	7.932321381448275	
1.637834060565892E12	7.816590207806056	
1.6378340605854224E12	8.058678475063461	
1.6378340606049526E12	8.008241416006257	
1.6378340606244827E12	7.790241772759967	
1.637834060644013E12	8.053678042135006	
1.6378340606635432E12	7.911886919961801	
1.6378340606830735E12	7.9640068170237726	
1.6378340607026038E12	7.867508077721764	
1.637834060722134E12	8.069809246437858	
1.6378340607416643E12	7.999009847522956	
1.6378340607611946E12	8.082142044958518	
1.6378340607807249E12	7.996437509429953	
1.6378340608002551E12	7.978046494092126	
1.6378340608197854E12	8.015645903227238	
1.6378340608393157E12	7.999755104353639	
1.637834060858846E12	7.9396056659546295	
1.6378340608783762E12	7.988335846464139	
1.6378340608979065E12	7.998192469063497	
1.6378340609174368E12	8.00030803684092	
1.637834060936967E12	7.991004346728843	
1.637834060956497E12	7.928474894580233	
1.6378340609760273E12	7.981436210644588	
1.6378340609955576E12	7.946697626117582	
1.637834061015088E12	7.949822896697866	
1.6378340610346182E12	8.000524401727247	
1.6378340610541484E12	8.006823023973666	
1.6378340610736787E12	7.940182638984836	
1.637834061093209E12	7.952202910447467	
1.6378340611127393E12	7.9223445561342904	
1.6378340611322695E12	7.8877261743219105	
1.6378340611517998E12	7.962035492503901	
1.63783406117133E12	7.936792922432374	
1.6378340611908604E12	7.865440591030191	
1.6378340612103906E12	7.901862013561966	
1.637834061229921E12	7.915925731173245	
1.6378340612494512E12	7.908617406123965	
1.6378340612689814E12	7.946337017973703	
1.6378340612885115E12	7.884240295597747	
1.6378340613080417E12	7.932105016561947	
1.637834061327572E12	7.921575258760682	
1.6378340613471023E12	7.961194073501517	
1.6378340613666326E12	7.921791623647009	
1.6378340613861628E12	7.909891554899004	
1.637834061405693E12	7.886115457945918	
1.6378340614252234E12	7.950880680586578	
1.6378340614447537E12	7.895154702085818	
1.637834061464284E12	7.913641879595345	
1.6378340614838142E12	7.936095746687541	
1.6378340615033445E12	7.885778890344964	
1.6378340615228748E12	7.934917760084203	
1.637834061542405E12	7.929845205526973	
1.6378340615619353E12	7.920854042472924	
1.6378340615814656E12	7.921022326273401	
1.6378340616009958E12	7.931167435387862	
1.637834061620526E12	7.971627669131081	
1.6378340616400562E12	7.94696207208976	
1.6378340616595864E12	7.973791317994355	
1.6378340616791167E12	7.98112368358656	
1.637834061698647E12	7.954102113338563	
1.6378340617181772E12	7.9934084010213695	
1.6378340617377075E12	7.9602564923274315	
1.6378340617572378E12	7.987806954519783	
1.637834061776768E12	7.995788414770971	
1.6378340617962983E12	8.004394929138215	
1.6378340618158286E12	7.989033022208972	
1.637834061835359E12	8.031296296671584	
1.6378340618548892E12	7.997375090604038	
1.6378340618744194E12	7.946889950460984	
1.6378340618939497E12	8.028002742290823	
1.63783406191348E12	8.036513094486367	
1.6378340619330103E12	8.017545106118334	
1.6378340619525403E12	8.033844594221662	
1.6378340619720706E12	7.990691819670815	
1.6378340619916008E12	8.035214905168402	
1.637834062011131E12	8.018602890007045	
1.6378340620306614E12	8.03776320271848	
1.6378340620501917E12	8.04939882549431	
1.637834062069722E12	8.046513960343276	
1.6378340620892522E12	8.048148717262194	
1.6378340621087825E12	8.051899041958537	
1.6378340621283127E12	8.064159718850421	
1.637834062147843E12	8.075723219997473	
1.6378340621673733E12	8.087430964402076	
1.6378340621869036E12	8.070987233041196	
1.6378340622064338E12	8.077213733658839	
1.637834062225964E12	8.083872964049137	
1.6378340622454944E12	8.089402288921947	
1.6378340622650247E12	8.090267748467257	
1.6378340622845547E12	8.087935815803506	
1.637834062304085E12	8.103970857934657	
1.6378340623236152E12	8.118948116177096	
1.6378340623431455E12	8.119669332464854	
1.6378340623626758E12	8.124934211365487	
1.637834062382206E12	8.128131603574547	
1.6378340624017363E12	8.099571438579334	
1.6378340624212666E12	8.083127707218454	
1.6378340624407969E12	8.109908872037197	
1.6378340624603271E12	8.086180856169962	
1.6378340624798574E12	8.130896266010952	
1.6378340624993877E12	8.120486710924313	
1.637834062518918E12	8.147339997371832	
1.6378340625384482E12	8.133324360846403	
1.6378340625579785E12	8.110678169410805	
1.6378340625775088E12	8.183376771216803	
1.637834062597039E12	8.158422687660378	
1.637834062616569E12	8.157412984857517	
1.6378340626360994E12	8.177342594942562	
1.6378340626556296E12	8.119164481063423	
1.63783406267516E12	8.186069312024433	
1.6378340626946902E12	8.14618605131142	
1.6378340627142205E12	8.179818770863864	
1.6378340627337507E12	8.160658458152428	
1.637834062753281E12	8.181982419727138	
1.6378340627728113E12	8.135848617853556	
1.6378340627923416E12	8.163230796245431	
1.6378340628118718E12	8.15354245744655	
1.637834062831402E12	8.171092053781992	
1.6378340628509324E12	8.156619646940984	
1.6378340628704626E12	8.193569961417115	
1.637834062889993E12	8.171140134867843	
1.6378340629095232E12	8.194723907477528	
1.6378340629290535E12	8.21364381475971	
1.6378340629485835E12	8.17400095947595	
1.6378340629681138E12	8.200084948549861	
1.637834062987644E12	8.20917227377561	
1.6378340630071743E12	8.206984584369412	
1.6378340630267046E12	8.221192545238242	
1.6378340630462349E12	8.203378502930622	
1.6378340630657651E12	8.21958182886225	
1.6378340630852954E12	8.236506371081635	
1.6378340631048257E12	8.205950841023625	
1.637834063124356E12	8.212513909242222	
1.6378340631438862E12	8.223572558987843	
1.6378340631634165E12	8.23109724892345	
1.6378340631829468E12	8.233958073531557	
1.637834063202477E12	8.214917963534749	
1.6378340632220073E12	8.200565759408367	
1.6378340632415376E12	8.21410058507529	
1.6378340632610679E12	8.22273113998546	
1.637834063280598E12	8.22369276170247	
1.6378340633001282E12	8.218115355743809	
1.6378340633196584E12	8.2310491678376	
1.6378340633391887E12	8.239246992975115	
1.637834063358719E12	8.218692328774015	
1.6378340633782493E12	8.212177341641269	
1.6378340633977795E12	8.272735469270007	
1.6378340634173098E12	8.206407611339205	
1.63783406343684E12	8.255065670219938	
1.6378340634563704E12	8.275980942564917	
1.6378340634759006E12	8.259921859890841	
1.637834063495431E12	8.207056705998188	
1.6378340635149612E12	8.247540980284331	
1.6378340635344915E12	8.236650614339187	
1.6378340635540217E12	8.261965306039489	
1.637834063573552E12	8.301584120780324	
1.6378340635930823E12	8.253503034929796	
1.6378340636126123E12	8.269153428374143	
1.6378340636321426E12	8.284707659646788	
1.6378340636516729E12	8.279995713233436	
1.6378340636712031E12	8.279538942917856	
1.6378340636907334E12	8.288914754658709	
1.6378340637102637E12	8.295766309392409	
1.637834063729794E12	8.29886753942977	
1.6378340637493242E12	8.294155593016416	
1.6378340637688545E12	8.30074270177794	
1.6378340637883848E12	8.305069999504488	
1.637834063807915E12	8.305622931991769	
1.6378340638274453E12	8.292400633382872	
1.6378340638469756E12	8.302810188469513	
1.6378340638665059E12	8.3016562424091	
1.6378340638860361E12	8.33637078639318	
1.6378340639055664E12	8.31769128454025	
1.6378340639250967E12	8.303098674984616	
1.6378340639446267E12	8.353776139471071	
1.637834063964157E12	8.328773974828797	
1.6378340639836873E12	8.33495239436059	
1.6378340640032175E12	8.336875637794611	
1.6378340640227478E12	8.33677947562291	
1.637834064042278E12	8.345289827818453	
1.6378340640618083E12	8.316561379022763	
1.6378340640813386E12	8.354521396301754	
1.637834064100869E12	8.346972665823222	
1.6378340641203992E12	8.326418001622121	
1.6378340641399294E12	8.366493586678535	
1.6378340641594597E12	8.35728605873816	
1.63783406417899E12	8.341010611177756	
1.6378340641985203E12	8.356709085707953	
1.6378340642180505E12	8.333509961785074	
1.6378340642375808E12	8.35692545059428	
1.637834064257111E12	8.371469979064065	
1.637834064276641E12	8.374162519871694	
1.6378340642961714E12	8.389933116030667	
1.6378340643157017E12	8.353006842097463	
1.637834064335232E12	8.372744127839104	
1.6378340643547622E12	8.398828116913014	
1.6378340643742925E12	8.370267951917802	
1.6378340643938228E12	8.394500819186467	
1.637834064413353E12	8.3884426023693	
1.6378340644328833E12	8.388418561826375	
1.6378340644524136E12	8.409958888287411	
1.6378340644719438E12	8.403636225498067	
1.637834064491474E12	8.39707315727947	
1.6378340645110044E12	8.427556565708706	
1.6378340645305347E12	8.396424062620488	
1.637834064550065E12	8.379908209630832	
1.6378340645695952E12	8.42315714635338	
1.6378340645891255E12	8.394188292128439	
1.6378340646086555E12	8.398515589854986	
1.6378340646281858E12	8.403179455182487	
1.637834064647716E12	8.416858524106962	
1.6378340646672463E12	8.40981464502986	
1.6378340646867766E12	8.394572940815243	
1.637834064706307E12	8.42164259214909	
1.6378340647258372E12	8.420536727174527	
1.6378340647453674E12	8.400751360347035	
1.6378340647648977E12	8.456285014504395	
1.637834064784428E12	8.392721819009997	
1.6378340648039583E12	8.415103564473418	
1.6378340648234885E12	8.387505021195215	
1.6378340648430188E12	8.389284021371685	
1.637834064862549E12	8.416449834877232	
1.6378340648820793E12	8.428157579281837	
1.6378340649016096E12	8.429143241541773	
1.63783406492114E12	8.456236933418545	
1.63783406494067E12	8.435562066502818	
1.6378340649602002E12	8.451861554606147	
1.6378340649797305E12	8.431403052576748	
1.6378340649992607E12	8.432124268864506	
1.637834065018791E12	8.45037104094478	
1.6378340650383213E12	8.435922674646697	
1.6378340650578516E12	8.441500080605358	
1.6378340650773818E12	8.4269795926785	
1.637834065096912E12	8.445923540503607	
1.6378340651164424E12	8.449890230086275	
1.6378340651359727E12	8.458520784996445	
1.637834065155503E12	8.47128631328976	
1.6378340651750332E12	8.451116297775464	
1.6378340651945635E12	8.453424189896289	
1.6378340652140938E12	8.474291381155417	
1.637834065233624E12	8.471598840347788	
1.637834065253154E12	8.468978421168934	
1.6378340652726843E12	8.471430556547311	
1.6378340652922146E12	8.473954813554464	
1.6378340653117449E12	8.465204055929668	
1.6378340653312751E12	8.458905433683249	
1.6378340653508054E12	8.490302382743643	
1.6378340653703357E12	8.471021867317582	
1.637834065389866E12	8.465973353303276	
1.6378340654093962E12	8.465997393846202	
1.6378340654289265E12	8.469314988769888	
1.6378340654484568E12	8.463785663897077	
1.637834065467987E12	8.509823303598957	
1.6378340654875173E12	8.485927003931245	
1.6378340655070476E12	8.470757421345404	
1.637834065526578E12	8.474916435271474	
1.6378340655461082E12	8.487177112163359	
1.6378340655656384E12	8.48640781478975	
1.6378340655851685E12	8.509582898169704	
1.6378340656046987E12	8.488258936594995	
1.637834065624229E12	8.49133612608943	
1.6378340656437593E12	8.468713975196756	
1.6378340656632896E12	8.514559290555233	
1.6378340656828198E12	8.540234590399415	
1.63783406570235E12	8.510087749571134	
1.6378340657218804E12	8.51691526376191	
1.6378340657414106E12	8.496192315760332	
1.637834065760941E12	8.49874061331041	
1.6378340657804712E12	8.515665155529796	
1.6378340658000015E12	8.485301949815188	
1.6378340658195317E12	8.540859644515471	
1.637834065839062E12	8.522805196778599	
1.6378340658585923E12	8.533839805981295	
1.6378340658781226E12	8.503524681352538	
1.6378340658976528E12	8.53335899512279	
1.6378340659171829E12	8.519583764026613	
1.6378340659367131E12	8.529680792055224	
1.6378340659562434E12	8.546413009931207	
1.6378340659757737E12	8.526435318760313	
1.637834065995304E12	8.507563492563982	
1.6378340660148342E12	8.55559649732866	
1.6378340660343645E12	8.52477652129847	
1.6378340660538948E12	8.533527278923266	
1.637834066073425E12	8.551365361773813	
1.6378340660929553E12	8.54874494259496	
1.6378340661124856E12	8.548047766850125	
1.6378340661320159E12	8.53797477936444	
1.6378340661515461E12	8.551653848288916	
1.6378340661710764E12	8.542710766320717	
1.6378340661906067E12	8.550403740056803	
1.637834066210137E12	8.5729537693207	
1.6378340662296672E12	8.562784619663313	
1.6378340662491973E12	8.55112495634456	
1.6378340662687275E12	8.553601132265863	
1.6378340662882578E12	8.568794755394629	
1.637834066307788E12	8.572881647691924	
1.6378340663273184E12	8.566534944359654	
1.6378340663468486E12	8.595960568900177	
1.637834066366379E12	8.564082808981277	
1.6378340663859092E12	8.57341053963628	
1.6378340664054395E12	8.594205609266632	
1.6378340664249697E12	8.614904516725284	
1.6378340664445E12	8.561919160118004	
1.6378340664640303E12	8.569540012225312	
1.6378340664835605E12	8.569203444624359	
1.6378340665030908E12	8.581824729660122	
1.637834066522621E12	8.62000111182544	
1.6378340665421514E12	8.597883812334198	
1.6378340665616816E12	8.57793016170623	
1.6378340665812117E12	8.581031391743588	
1.637834066600742E12	8.583820094722919	
1.6378340666202722E12	8.58579141924279	
1.6378340666398025E12	8.575934796643432	
1.6378340666593328E12	8.616996043959782	
1.637834066678863E12	8.5913207441156	
1.6378340666983933E12	8.589685987196683	
1.6378340667179236E12	8.642406897831785	
1.6378340667374539E12	8.606490326701442	
1.6378340667569841E12	8.599686853053592	
1.6378340667765144E12	8.590912054885871	
1.6378340667960447E12	8.620481922683945	
1.637834066815575E12	8.614135219351676	
1.6378340668351052E12	8.619472219881084	
1.6378340668546355E12	8.618029787305568	
1.6378340668741658E12	8.615361287040864	
1.637834066893696E12	8.604182434580617	
1.637834066913226E12	8.55660620013152	
1.6378340669327563E12	8.486479936418526	
1.6378340669522866E12	8.5912245819439	
1.637834066971817E12	8.539585495740432	
1.6378340669913472E12	8.531940603090199	
1.6378340670108774E12	8.540979847230098	
1.6378340670304077E12	8.514871817613262	
1.637834067049938E12	8.567256160647412	
1.6378340670694683E12	8.590791852171245	
1.6378340670889985E12	8.585070202955032	
1.6378340671085288E12	8.570982444800828	
1.637834067128059E12	8.601393731601286	
1.6378340671475894E12	8.62278981480477	
1.6378340671671196E12	8.600936961285706	
1.63783406718665E12	8.656711020872317	
1.6378340672061802E12	8.832591632913546	
1.6378340672257104E12	8.798574264674299	
1.6378340672452405E12	8.79064088550896	
1.6378340672647708E12	8.828961510931832	
1.637834067284301E12	8.769773694249832	
1.6378340673038313E12	8.71020122888103	
1.6378340673233616E12	8.692723754174363	
1.6378340673428918E12	8.773932708175902	
1.637834067362422E12	8.69572882204002	
1.6378340673819524E12	8.684429766865147	
1.6378340674014827E12	8.701762998314262	
1.637834067421013E12	8.695248011181516	
1.6378340674405432E12	8.662192264659277	
1.6378340674600735E12	8.747992962359543	
1.6378340674796038E12	8.750709543710098	
1.637834067499134E12	8.660341142854032	
1.6378340675186643E12	8.694598916522533	
1.6378340675381946E12	8.729145176706137	
1.6378340675577249E12	8.664620359494728	
1.637834067577255E12	8.682314199087724	
1.6378340675967852E12	8.670894941198222	
1.6378340676163154E12	8.69024757825306	
1.6378340676358457E12	8.683275820804734	
1.637834067655376E12	8.767513883214857	
1.6378340676749062E12	8.687122307672777	
1.6378340676944365E12	8.711283053312666	
1.6378340677139668E12	8.675222238924771	
1.637834067733497E12	8.65786496693273	
1.6378340677530273E12	8.690848591826192	
1.6378340677725576E12	8.695368213896142	
1.637834067792088E12	8.676616590414437	
1.6378340678116182E12	8.639065262365174	
1.6378340678311484E12	8.663370251262615	
1.6378340678506787E12	8.654186763865164	
1.637834067870209E12	8.646181263071052	
1.6378340678897393E12	8.640435573311914	
1.6378340679092693E12	8.661711453800772	
1.6378340679287996E12	8.609303070223698	
1.6378340679483298E12	8.644859033210162	
1.63783406796786E12	8.69654620049948	
1.6378340679873904E12	8.650580682426375	
1.6378340680069207E12	8.623727395978856	
1.637834068026451E12	8.643560843892198	
1.6378340680459812E12	8.670894941198222	
1.6378340680655115E12	8.67517415783892	
1.6378340680850417E12	8.656350412728438	
1.637834068104572E12	8.650051790482019	
1.6378340681241023E12	8.63553130255516	
1.6378340681436326E12	8.633776342921616	
1.6378340681631628E12	8.6460370198135	
1.637834068182693E12	8.649042087679158	
1.6378340682022234E12	8.648994006593307	
1.6378340682217537E12	8.650436439168823	
1.6378340682412837E12	8.642310735660084	
1.637834068260814E12	8.647840060532895	
1.6378340682803442E12	8.652143317716517	
1.6378340682998745E12	8.647166925330987	
1.6378340683194048E12	8.648994006593307	
1.637834068338935E12	8.655316669382652	
1.6378340683584653E12	8.656374453271363	
1.6378340683779956E12	8.664476116237177	
1.637834068397526E12	8.635387059297608	
1.6378340684170562E12	8.62634781515771	
1.6378340684365864E12	8.65014795265372	
1.6378340684561167E12	8.644762871038461	
1.637834068475647E12	8.64836895247725	
1.6378340684951772E12	8.654427169294417	
1.6378340685147075E12	8.655340709925577	
1.6378340685342378E12	8.646565911757856	
1.637834068553768E12	8.647960263247521	
1.637834068573298E12	8.646686114472482	
1.6378340685928284E12	8.649330574194261	
1.6378340686123586E12	8.648296830848475	
1.637834068631889E12	8.654282926036865	
1.6378340686514192E12	8.655268588296801	
1.6378340686709495E12	8.660990237513014	
1.6378340686904797E12	8.662817318775334	
1.63783406871001E12	8.665557940668814	
1.6378340687295403E12	8.65978821036675	
1.6378340687490706E12	8.652527966403321	
1.6378340687686008E12	8.65659081815769	
1.637834068788131E12	8.662673075517782	
1.6378340688076614E12	8.653489588120332	
1.6378340688271917E12	8.655605155897755	
1.637834068846722E12	8.659042953536067	
1.6378340688662522E12	8.66019689959648	
1.6378340688857825E12	8.651830790658488	
1.6378340689053125E12	8.659139115707768	
1.6378340689248428E12	8.66334621071969	
1.637834068944373E12	8.654980101781698	
1.6378340689639033E12	8.657071629016196	
1.6378340689834336E12	8.656903345215719	
1.6378340690029639E12	8.659668007652124	
1.6378340690224941E12	8.657143750644972	
1.6378340690420244E12	8.660749832083761	
1.6378340690615547E12	8.651950993373115	
1.637834069081085E12	8.651181695999506	
1.6378340691006152E12	8.655941723498708	
1.6378340691201455E12	8.65055664188345	
1.6378340691396758E12	8.658538102134637	
1.637834069159206E12	8.659427602222872	
1.6378340691787363E12	8.65704758847327	
1.6378340691982666E12	8.652744331289648	
1.6378340692177969E12	8.654523331466118	
1.637834069237327E12	8.660845994255462	
1.6378340692568572E12	8.656662939786466	
1.6378340692763875E12	8.661687413257846	
1.6378340692959177E12	8.660076696881854	
1.637834069315448E12	8.662673075517782	
1.6378340693349783E12	8.645724492755472	
1.6378340693545085E12	8.63598807287074	
1.6378340693740388E12	8.650845128398553	
1.637834069393569E12	8.652215439345293	
1.6378340694130994E12	8.649138249850859	
1.6378340694326296E12	8.653778074635435	
1.63783406945216E12	8.65385019626421	
1.6378340694716902E12	8.653970398978837	
1.6378340694912205E12	8.644834992667237	
1.6378340695107507E12	8.655292628839726	
1.637834069530281E12	8.65740819661715	
1.6378340695498113E12	8.652648169117947	
1.6378340695693413E12	8.654932020695847	
1.6378340695888716E12	8.644330141265806	
1.6378340696084019E12	8.655340709925577	
1.6378340696279321E12	8.656855264129868	
1.6378340696474624E12	8.654018480064687	
1.6378340696669927E12	8.659716088737975	
1.637834069686523E12	8.661999940315875	
1.6378340697060532E12	8.660220940139405	
1.6378340697255835E12	8.66106235914179	
1.6378340697451138E12	8.667865832789639	
1.637834069764644E12	8.673779806349255	
1.6378340697841743E12	8.666952292158479	
1.6378340698037046E12	8.658177493990758	
1.6378340698232349E12	8.663923183749896	
1.6378340698427651E12	8.657336074988374	
1.6378340698622954E12	8.66339429180554	
1.6378340698818257E12	8.664836724381056	
1.6378340699013557E12	8.658105372361982	
1.637834069920886E12	8.661927818687099	
1.6378340699404163E12	8.662360548459754	
1.6378340699599465E12	8.661038318598864	
1.6378340699794768E12	8.659259318422395	
1.637834069999007E12	8.66293752148996	
1.6378340700185374E12	8.659571845480423	
1.6378340700380676E12	8.65704758847327	
1.637834070057598E12	8.664692481123504	
1.6378340700771282E12	8.662552872803156	
1.6378340700966584E12	8.666231075870721	
1.6378340701161887E12	8.656662939786466	
1.637834070135719E12	8.65928335896532	
1.6378340701552493E12	8.66298560257581	
1.6378340701747795E12	8.660749832083761	
1.6378340701943098E12	8.660990237513014	
1.63783407021384E12	8.660076696881854	
1.63783407023337E12	8.658754467020964	
1.6378340702529004E12	8.66618299478487	
1.6378340702724307E12	8.671904644001083	
1.637834070291961E12	8.646253384699827	
1.6378340703114912E12	8.649763303966916	
1.6378340703310215E12	8.665966629898543	
1.6378340703505518E12	8.665654102840515	
1.637834070370082E12	8.666880170529703	
1.6378340703896123E12	8.659475683308722	
1.6378340704091426E12	8.665125210896159	
1.6378340704286729E12	8.665365616325412	
1.6378340704482031E12	8.669115941021753	
1.6378340704677334E12	8.662697116060707	
1.6378340704872637E12	8.664500156780102	
1.637834070506794E12	8.662913480947035	
1.6378340705263242E12	8.658994872450217	
1.6378340705458545E12	8.658225575076608	
1.6378340705653845E12	8.658129412904907	
1.6378340705849148E12	8.66111044022764	
1.637834070604445E12	8.659427602222872	
1.6378340706239753E12	8.663081764747512	
1.6378340706435056E12	8.6665916840146	
1.637834070663036E12	8.664596318951803	
1.6378340706825662E12	8.667937954418415	
1.6378340707020964E12	8.66928422482223	
1.6378340707216267E12	8.67365960363463	
1.637834070741157E12	8.679910144795198	
1.6378340707606873E12	8.675967495755454	
1.6378340707802175E12	8.674885671323818	
1.6378340707997478E12	8.673515360377078	
1.637834070819278E12	8.674741428066266	
1.6378340708388083E12	8.67329899549075	
1.6378340708583386E12	8.668563008534472	
1.637834070877869E12	8.665557940668814	
1.637834070897399E12	8.66654360292875	
1.6378340709169292E12	8.664572278408878	
1.6378340709364595E12	8.66298560257581	
1.6378340709559897E12	8.673491319834152	
1.63783407097552E12	8.667721589532087	
1.6378340709950503E12	8.670726657397745	
1.6378340710145806E12	8.672241211602037	
1.6378340710341108E12	8.67375576580633	
1.637834071053641E12	8.67603961738423	
1.6378340710731714E12	8.674428901008238	
1.6378340710927017E12	8.676760833671988	
1.637834071112232E12	8.674885671323818	
1.6378340711317622E12	8.678395590590906	
1.6378340711512925E12	8.677265685073419	
1.6378340711708228E12	8.677626293217298	
1.637834071190353E12	8.675246279467697	
1.637834071209883E12	8.675462644354024	
1.6378340712294133E12	8.671880603458158	
1.6378340712489436E12	8.677698414846073	
1.6378340712684739E12	8.652335642059919	
1.6378340712880042E12	8.670822819569446	
1.6378340713075344E12	8.67252969811714	
1.6378340713270647E12	8.678131144618728	
1.637834071346595E12	8.674981833495519	
1.6378340713661252E12	8.678708117648934	
1.6378340713856555E12	8.680583279997105	
1.6378340714051858E12	8.675198198381846	
1.637834071424716E12	8.669091900478827	
1.6378340714442463E12	8.670894941198222	
1.6378340714637766E12	8.680751563797582	
1.637834071483307E12	8.678972563621112	
1.6378340715028372E12	8.672794144089318	
1.6378340715223674E12	8.667937954418415	
1.6378340715418975E12	8.67457314426579	
1.6378340715614277E12	8.665750265012216	
1.637834071580958E12	8.665101170353234	
1.6378340716004883E12	8.659523764394573	
1.6378340716200186E12	8.680775604340507	
1.6378340716395488E12	8.655052223410474	
1.637834071659079E12	8.658682345392188	
1.6378340716786094E12	8.658706385935114	
1.6378340716981396E12	8.64096446525627	
1.63783407171767E12	8.66070175099791	
1.6378340717372002E12	8.66111044022764	
1.6378340717567305E12	8.614760273467732	
1.6378340717762607E12	8.64014708679681	
1.637834071795791E12	8.66298560257581	
1.6378340718153213E12	8.671087265541624	
1.6378340718348516E12	8.659379521137021	
1.6378340718543818E12	8.641781843715728	
1.6378340718739119E12	8.646613992843706	
1.6378340718934421E12	8.650171993196645	
1.6378340719129724E12	8.675606887611576	
1.6378340719325027E12	8.685872199440663	
1.637834071952033E12	8.69481528140886	
1.6378340719715632E12	8.657720723675178	
1.6378340719910935E12	8.668611089620322	
1.6378340720106238E12	8.696474078870704	
1.637834072030154E12	8.695031646295188	
1.6378340720496843E12	8.665774305555141	
1.6378340720692146E12	8.671447873685503	
1.6378340720887449E12	8.65603788567041	
1.6378340721082751E12	8.660509426654508	
1.6378340721278054E12	8.657384156074224	
1.6378340721473357E12	8.665966629898543	
1.637834072166866E12	8.651734628486787	
1.6378340721863962E12	8.618318273820671	
1.6378340722059263E12	8.675727090326202	
1.6378340722254565E12	8.681665104428742	
1.6378340722449868E12	8.6823863207165	
1.637834072264517E12	8.645099438639415	
1.6378340722840474E12	8.70486422835162	
1.6378340723035776E12	8.700969660397728	
1.637834072323108E12	8.62456881498124	
1.6378340723426382E12	8.690752429654491	
1.6378340723621685E12	8.729529825392941	
1.6378340723816987E12	8.651374020342908	
1.637834072401229E12	8.65750435878885	
1.6378340724207593E12	8.656061926213335	
1.6378340724402896E12	8.6778186175607	
1.6378340724598198E12	8.704936349980397	
1.63783407247935E12	8.662817318775334	
1.6378340724988804E12	8.638921019107622	
1.6378340725184106E12	8.60040806934135	
1.6378340725379407E12	8.642046289687906	
1.637834072557471E12	8.687987767218086	
1.6378340725770012E12	8.552086578061571	
1.6378340725965315E12	8.458208257938416	
1.6378340726160618E12	8.614543908581405	
1.637834072635592E12	8.622669612090144	
1.6378340726551223E12	8.566631106531355	
1.6378340726746526E12	8.487898328451116	
1.6378340726941829E12	8.378946587913822	
1.6378340727137131E12	8.399453171029071	
1.6378340727332434E12	8.616707557444679	
1.6378340727527737E12	8.488763787996426	
1.637834072772304E12	8.661639332171996	
1.6378340727918342E12	8.397553968137975	
1.6378340728113645E12	8.584565351553602	
1.6378340728308948E12	8.138348834317783	
1.637834072850425E12	8.660821953712537	
1.637834072869955E12	8.110341601809852	
1.6378340728894854E12	8.299107944859022	
1.6378340729090156E12	8.268888982401965	
1.637834072928546E12	8.119140440520498	
1.6378340729480762E12	8.336539070193657	
1.6378340729676064E12	8.176020365081673	
1.6378340729871367E12	8.554899321583827	
1.637834073006667E12	8.068607219291595	
1.6378340730261973E12	8.631131883199837	
1.6378340730457275E12	8.41392557787008	
1.6378340730652578E12	8.39474122461572	
1.637834073084788E12	8.34815065242656	
1.6378340731043184E12	8.464386677470209	
1.6378340731238486E12	8.308844364743754	
1.637834073143379E12	8.386182791334326	
1.6378340731629092E12	8.397602049223826	
1.6378340731824395E12	8.245257128706431	
1.6378340732019695E12	8.631252085914463	
1.6378340732214998E12	8.087719450917179	
1.63783407324103E12	8.209508841376564	
1.6378340732605603E12	8.549418077796867	
1.6378340732800906E12	8.493403612781002	
1.6378340732996208E12	8.280139956490988	
1.6378340733191511E12	8.380244777231786	
1.6378340733386814E12	8.332356015724661	
1.6378340733582117E12	8.03004618843947	
1.637834073377742E12	8.251195142808971	
1.6378340733972722E12	8.306800918595107	
1.6378340734168025E12	8.448592040768311	
1.6378340734363328E12	8.292641038812125	
1.637834073455863E12	8.330144285775537	
1.6378340734753933E12	8.488162774423294	
1.6378340734949236E12	8.435898634103772	
1.6378340735144539E12	8.296006714821662	
1.637834073533984E12	8.12248207598711	
1.6378340735535142E12	8.508813600796095	
1.6378340735730444E12	8.388827251056105	
1.6378340735925747E12	8.301511999151549	
1.637834073612105E12	8.21871636931694	
1.6378340736316353E12	8.533190711322312	
1.6378340736511655E12	7.96153064110247	
1.6378340736706958E12	8.41387749678423	
1.637834073690226E12	8.2652107793344	
1.6378340737097563E12	8.416473875420158	
1.6378340737292866E12	8.222851342700086	
1.637834073748817E12	8.201527381125377	
1.6378340737683472E12	8.415271848273894	
1.6378340737878774E12	8.287520403169044	
1.6378340738074077E12	8.13070394166755	
1.637834073826938E12	8.380076493431309	
1.6378340738464683E12	8.346563976593492	
1.6378340738659983E12	8.306344148279527	
1.6378340738855286E12	8.316296933050586	
1.6378340739050588E12	8.234462924932988	
1.637834073924589E12	8.36961885725882	
1.6378340739441194E12	8.484965382214234	
1.6378340739636497E12	8.242276101383698	
1.63783407398318E12	8.332548340068064	
1.6378340740027102E12	8.35545897747584	
1.6378340740222405E12	8.224053369846349	
1.6378340740417708E12	8.466333961447155	
1.637834074061301E12	8.386302994048952	
1.6378340740808313E12	8.301175431550595	
1.6378340741003616E12	8.183929703704084	
1.6378340741198918E12	8.349232476858196	
1.637834074139422E12	8.340193232718297	
1.6378340741589524E12	8.191406312553841	
1.6378340741784827E12	8.335649570105423	
1.6378340741980127E12	8.358079396654693	
1.637834074217543E12	8.326586285422598	
1.6378340742370732E12	8.37154210069284	
1.6378340742566035E12	8.36240669438124	
1.6378340742761338E12	8.280428443006091	
1.637834074295664E12	8.335168759246917	
1.6378340743151943E12	8.37784072293926	
1.6378340743347246E12	8.371301695263588	
1.637834074354255E12	8.320167460461553	
1.6378340743737852E12	8.310503162205597	
1.6378340743933154E12	8.347381355052951	
1.6378340744128457E12	8.440586539974198	
1.637834074432376E12	8.390029278202368	
1.6378340744519062E12	8.326153555649944	
1.6378340744714365E12	8.447918905566404	
1.6378340744909668E12	8.385726021018746	
1.637834074510497E12	8.401761063149896	
1.637834074530027E12	8.381326601663423	
1.6378340745495574E12	8.39438061647184	
1.6378340745690876E12	8.365483883875674	
1.637834074588618E12	8.302906350641214	
1.6378340746081482E12	8.284347051502909	
1.6378340746276785E12	8.19313723164446	
1.6378340746472087E12	8.228452789201672	
1.637834074666739E12	8.361589315921782	
1.6378340746862693E12	8.26845625262931	
1.6378340747057996E12	8.289443646603065	
1.6378340747253298E12	8.492538153235692	
1.63783407474486E12	8.592474690176013	
1.6378340747643904E12	8.562183606090182	
1.6378340747839207E12	8.467103258820764	
1.637834074803451E12	8.854708932404789	
1.6378340748229812E12	8.900313842334013	
1.6378340748425115E12	8.7577534227872	
1.6378340748620415E12	8.672722022460542	
1.6378340748815718E12	8.580189972741204	
1.637834074901102E12	8.601393731601286	
1.6378340749206323E12	8.560116119398609	
1.6378340749401626E12	8.634305234865971	
1.6378340749596929E12	8.62315042294865	
1.6378340749792231E12	8.60173029920224	
1.6378340749987534E12	8.621635868744358	
1.6378340750182837E12	8.614231381523377	
1.637834075037814E12	8.59031104131274	
1.6378340750573442E12	8.670005441109987	
1.6378340750768745E12	8.607932759276958	
1.6378340750964048E12	8.616515233101277	
1.637834075115935E12	8.62182819308776	
1.6378340751354653E12	8.590936095428797	
1.6378340751549956E12	8.57793016170623	
1.637834075174526E12	8.647046722616361	
1.637834075194056E12	8.578002283335005	
1.6378340752135862E12	8.568722633765853	
1.6378340752331165E12	8.642575181632262	
1.6378340752526467E12	8.635218775497131	
1.637834075272177E12	8.626516098958186	
1.6378340752917073E12	8.609158826966146	
1.6378340753112375E12	8.60396606969429	
1.6378340753307678E12	8.617645138618764	
1.637834075350298E12	8.630026018225275	
1.6378340753698284E12	8.631612694058342	
1.6378340753893586E12	8.625578517784101	
1.637834075408889E12	8.626660342215738	
1.6378340754284192E12	8.632622396861203	
1.6378340754479495E12	8.638584451506668	
1.6378340754674797E12	8.63822384336279	
1.63783407548701E12	8.639353748880277	
1.6378340755065403E12	8.648681479535279	
